SpectraSuite Datei
++++++++++++++++++++++++++++++++++++
Datum: Mon Mar 05 10:02:45 CET 2018
Benutzer: Admin
Dark-Spektrum vorhanden: Ja
Referenz-Spektrum vorhanden: Nein
Zahl der probierten Teilspektren: 1
Spektrometer: USB4F05832
Integrationszeit (usec): 200000 (USB4F05832)
Spektren Durchschnitt berechnet: 10 (USB4F05832)
Boxcar Glâ€°ttung: 0 (USB4F05832)
Dunkelstromkorrektur: Nein (USB4F05832)
Puls/Lampe aktiviert: Nein (USB4F05832)
Correct for Detector Non-linearity: Nein (USB4F05832)
Streulichtkorrektur: Nein (USB4F05832)
Anzahl Pixel in verarbeitetem Spektrum: 3648
>>>>>Begin Processed Spectral Data<<<<<
177,54	-0,20
177,75	-0,20
177,97	-0,20
178,19	-30,92
178,41	8,60
178,63	-15,36
178,85	-0,41
179,07	-12,49
179,29	-3,07
179,51	-17,41
179,73	14,54
179,95	-10,04
180,17	-17,00
180,39	-41,37
180,61	-15,77
180,83	-17,00
181,05	9,63
181,27	-9,42
181,49	-10,04
181,71	8,81
181,92	-12,29
182,14	-4,51
182,36	22,73
182,58	-32,15
182,80	-21,91
183,02	-11,06
183,24	-19,87
183,46	-3,69
183,68	19,25
183,90	-0,00
184,12	-0,20
184,34	-27,44
184,56	-25,19
184,78	-22,32
185,00	8,40
185,21	-21,71
185,43	-39,94
185,65	27,65
185,87	-16,59
186,09	1,84
186,31	-10,85
186,53	-12,08
186,75	-25,19
186,97	-5,12
187,19	-31,54
187,41	-3,48
187,63	-12,29
187,84	6,14
188,06	-33,18
188,28	-0,61
188,50	-34,41
188,72	-30,92
188,94	0,82
189,16	-19,05
189,38	-26,42
189,60	-12,70
189,82	-20,89
190,03	-33,18
190,25	6,35
190,47	-24,37
190,69	-19,46
190,91	-20,27
191,13	-6,14
191,35	-44,24
191,57	-31,13
191,79	1,02
192,01	-4,92
192,22	-30,72
192,44	21,09
192,66	32,77
192,88	0,41
193,10	0,20
193,32	-5,53
193,54	-5,94
193,76	-3,28
193,98	10,04
194,19	-37,27
194,41	-20,48
194,63	-30,11
194,85	-21,30
195,07	6,76
195,29	-4,30
195,51	0,00
195,73	-32,77
195,94	-15,97
196,16	-19,25
196,38	-24,78
196,60	-49,56
196,82	-11,47
197,04	-41,78
197,26	2,46
197,48	13,11
197,69	-25,19
197,91	-44,03
198,13	13,52
198,35	-18,43
198,57	2,87
198,79	-24,17
199,01	-16,59
199,22	19,05
199,44	6,76
199,66	-15,56
199,88	-37,89
200,10	-12,70
200,32	11,67
200,54	-1,23
200,75	-23,14
200,97	-5,94
201,19	-0,41
201,41	-28,06
201,63	18,23
201,85	0,61
202,06	-10,85
202,28	26,83
202,50	10,24
202,72	-21,09
202,94	-8,60
203,16	-19,46
203,38	-1,43
203,59	8,40
203,81	-28,26
204,03	-17,20
204,25	6,76
204,47	-0,20
204,69	0,20
204,90	-12,49
205,12	8,40
205,34	-20,07
205,56	-3,89
205,78	2,87
206,00	-13,31
206,21	28,06
206,43	-9,01
206,65	-10,85
206,87	-51,81
207,09	-10,65
207,30	-21,09
207,52	17,61
207,74	-5,94
207,96	-27,85
208,18	-2,46
208,40	-8,81
208,61	-2,66
208,83	-11,26
209,05	-1,84
209,27	-15,56
209,49	0,61
209,70	-2,66
209,92	-5,73
210,14	-6,76
210,36	3,07
210,58	-19,25
210,79	-19,05
211,01	2,05
211,23	-30,92
211,45	17,20
211,67	-7,78
211,88	2,46
212,10	-21,30
212,32	-27,03
212,54	-8,60
212,76	-3,28
212,97	-6,76
213,19	27,44
213,41	-19,05
213,63	10,65
213,85	-32,77
214,06	7,58
214,28	-15,15
214,50	-11,88
214,72	-38,71
214,94	-12,90
215,15	-2,87
215,37	23,96
215,59	0,61
215,81	-22,32
216,02	-4,30
216,24	6,96
216,46	-14,34
216,68	-34,20
216,90	-5,73
217,11	-56,52
217,33	4,92
217,55	4,92
217,77	-11,06
217,98	-31,33
218,20	5,94
218,42	-31,13
218,64	-23,76
218,85	-19,66
219,07	9,63
219,29	26,42
219,51	13,31
219,73	-28,47
219,94	-20,89
220,16	-24,37
220,38	-16,59
220,60	-26,62
220,81	0,20
221,03	-13,11
221,25	-5,32
221,47	-4,92
221,68	-37,68
221,90	-31,95
222,12	-27,03
222,34	-2,25
222,55	-10,65
222,77	-13,11
222,99	-18,64
223,21	-23,14
223,42	6,35
223,64	1,23
223,86	-5,94
224,08	-48,74
224,29	14,75
224,51	27,44
224,73	-15,36
224,94	-53,66
225,16	2,25
225,38	8,40
225,60	7,17
225,81	-30,31
226,03	2,66
226,25	-11,26
226,47	-1,02
226,68	-24,37
226,90	-20,07
227,12	-29,29
227,33	-20,07
227,55	0,61
227,77	-5,12
227,99	-25,19
228,20	-3,69
228,42	21,71
228,64	-21,50
228,86	16,18
229,07	12,70
229,29	-15,15
229,51	-2,25
229,72	-38,30
229,94	3,69
230,16	-10,85
230,38	-18,23
230,59	1,84
230,81	5,53
231,03	3,89
231,24	-11,88
231,46	-7,58
231,68	13,52
231,89	-21,71
232,11	-41,98
232,33	-4,71
232,55	-1,43
232,76	-15,15
232,98	-11,88
233,20	-12,08
233,41	-2,25
233,63	-3,28
233,85	12,49
234,06	-12,70
234,28	-4,71
234,50	10,04
234,71	-14,13
234,93	-16,38
235,15	-18,23
235,37	7,58
235,58	8,81
235,80	5,94
236,02	-27,65
236,23	-37,48
236,45	2,46
236,67	30,51
236,88	-4,30
237,10	-38,09
237,32	-37,68
237,53	-40,75
237,75	-5,12
237,97	-11,47
238,18	31,33
238,40	-2,05
238,62	4,10
238,83	1,02
239,05	12,29
239,27	-27,65
239,48	-4,51
239,70	9,63
239,92	-7,99
240,13	37,48
240,35	-10,85
240,57	1,43
240,78	-11,47
241,00	-13,93
241,22	-29,90
241,43	-11,06
241,65	30,92
241,87	-38,91
242,08	0,61
242,30	-16,79
242,52	11,47
242,73	-1,64
242,95	-4,30
243,16	10,65
243,38	1,84
243,60	-22,32
243,81	-18,84
244,03	-4,51
244,25	-30,31
244,46	9,83
244,68	-16,18
244,90	7,37
245,11	-27,24
245,33	-10,04
245,55	-5,12
245,76	-23,35
245,98	-6,35
246,19	-17,82
246,41	-44,24
246,63	-11,26
246,84	-3,48
247,06	-11,88
247,28	-2,25
247,49	-1,64
247,71	-21,91
247,92	-40,55
248,14	-53,25
248,36	-3,48
248,57	-17,61
248,79	6,35
249,01	-47,72
249,22	-12,70
249,44	0,00
249,65	-17,00
249,87	-22,73
250,09	9,42
250,30	-3,28
250,52	-28,26
250,73	9,83
250,95	22,73
251,17	23,14
251,38	-20,48
251,60	-12,29
251,81	-22,12
252,03	-29,90
252,25	-13,52
252,46	-37,07
252,68	-7,17
252,89	-34,00
253,11	30,31
253,33	-6,35
253,54	13,11
253,76	-18,02
253,97	-34,82
254,19	-18,23
254,41	-32,36
254,62	-8,81
254,84	9,63
255,05	-24,37
255,27	-30,72
255,49	3,89
255,70	21,09
255,92	-11,26
256,13	-13,52
256,35	-24,17
256,56	-4,71
256,78	1,23
257,00	-18,02
257,21	-2,25
257,43	-1,43
257,64	-0,41
257,86	-5,73
258,08	8,40
258,29	9,22
258,51	24,17
258,72	-12,70
258,94	-15,97
259,15	6,96
259,37	-24,17
259,59	-23,96
259,80	44,24
260,02	1,23
260,23	-26,83
260,45	-0,00
260,66	-19,66
260,88	6,55
261,09	5,12
261,31	-4,10
261,53	-21,50
261,74	-5,53
261,96	-2,05
262,17	-31,95
262,39	-43,01
262,60	19,46
262,82	19,05
263,03	-7,99
263,25	-14,54
263,46	11,67
263,68	-24,58
263,90	-35,02
264,11	-21,30
264,33	-10,85
264,54	13,11
264,76	-0,20
264,97	44,85
265,19	13,52
265,40	4,71
265,62	3,48
265,83	-9,01
266,05	-15,97
266,26	13,93
266,48	-12,08
266,70	1,02
266,91	3,48
267,13	-13,11
267,34	-0,41
267,56	27,24
267,77	-0,82
267,99	20,68
268,20	-5,94
268,42	2,46
268,63	-34,20
268,85	7,78
269,06	-67,17
269,28	17,00
269,49	-25,39
269,71	19,05
269,92	-16,59
270,14	-3,89
270,35	-0,20
270,57	-12,08
270,78	-18,02
271,00	-10,44
271,21	-10,44
271,43	4,30
271,64	-3,69
271,86	-30,51
272,07	29,29
272,29	1,43
272,50	-14,75
272,72	-31,54
272,93	-12,70
273,15	-45,26
273,36	-16,79
273,58	35,84
273,79	-0,61
274,01	5,94
274,22	-12,49
274,44	10,65
274,65	-3,48
274,87	-10,44
275,08	-3,07
275,30	12,29
275,51	-20,07
275,73	34,20
275,94	-24,58
276,16	-7,17
276,37	4,10
276,59	3,89
276,80	0,41
277,02	-14,34
277,23	-30,11
277,45	26,01
277,66	8,19
277,88	-28,06
278,09	-19,66
278,30	-3,28
278,52	29,49
278,73	3,48
278,95	-26,62
279,16	9,42
279,38	-29,08
279,59	0,00
279,81	12,29
280,02	-1,23
280,24	-3,07
280,45	-19,46
280,67	-16,79
280,88	-11,67
281,09	-13,72
281,31	-1,43
281,52	5,53
281,74	-39,73
281,95	-21,71
282,17	-2,66
282,38	-22,53
282,60	-6,96
282,81	-3,28
283,02	7,17
283,24	-26,21
283,45	16,18
283,67	0,41
283,88	-15,56
284,10	-17,61
284,31	1,43
284,53	-0,41
284,74	44,85
284,95	-17,82
285,17	7,17
285,38	4,30
285,60	-4,71
285,81	15,77
286,03	4,30
286,24	-23,35
286,45	7,58
286,67	-15,56
286,88	-35,23
287,10	12,70
287,31	-10,65
287,53	-37,27
287,74	-40,34
287,95	24,99
288,17	5,53
288,38	-32,36
288,60	-4,71
288,81	-10,44
289,02	28,67
289,24	18,64
289,45	7,78
289,67	-5,53
289,88	-26,42
290,10	-16,59
290,31	-6,35
290,52	-22,53
290,74	-22,94
290,95	-9,63
291,17	-2,25
291,38	-23,96
291,59	-34,20
291,81	-1,23
292,02	4,10
292,24	15,36
292,45	-14,54
292,66	-21,71
292,88	5,94
293,09	-24,99
293,31	-20,68
293,52	9,63
293,73	18,64
293,95	-4,10
294,16	35,43
294,37	-13,31
294,59	-0,20
294,80	11,26
295,02	14,34
295,23	0,82
295,44	-23,76
295,66	-1,64
295,87	-11,67
296,09	22,53
296,30	0,61
296,51	-14,75
296,73	-9,42
296,94	17,82
297,15	-1,64
297,37	5,53
297,58	-14,75
297,79	0,20
298,01	-0,41
298,22	-25,39
298,44	25,39
298,65	24,17
298,86	12,49
299,08	-9,42
299,29	34,61
299,50	-20,27
299,72	-7,37
299,93	-19,46
300,14	-15,36
300,36	19,46
300,57	18,64
300,79	-8,19
301,00	-12,29
301,21	13,93
301,43	-22,12
301,64	5,32
301,85	-17,82
302,07	32,36
302,28	-28,47
302,49	-14,95
302,71	-7,58
302,92	5,32
303,13	14,34
303,35	-39,73
303,56	-19,46
303,77	13,93
303,99	-7,99
304,20	38,09
304,41	10,85
304,63	13,72
304,84	9,22
305,05	-6,14
305,27	-17,41
305,48	9,42
305,69	-0,41
305,91	18,43
306,12	32,36
306,33	5,12
306,55	-10,44
306,76	3,69
306,97	36,86
307,19	20,07
307,40	2,05
307,61	4,51
307,82	2,46
308,04	-5,12
308,25	-20,68
308,46	-6,14
308,68	-1,84
308,89	18,23
309,10	30,51
309,32	41,16
309,53	12,29
309,74	-18,84
309,96	16,79
310,17	46,08
310,38	26,01
310,59	-3,07
310,81	12,49
311,02	-3,28
311,23	1,84
311,45	-4,51
311,66	23,55
311,87	-17,00
312,09	-2,46
312,30	-2,05
312,51	8,81
312,72	-10,04
312,94	14,13
313,15	-19,66
313,36	-5,32
313,58	-7,99
313,79	31,54
314,00	1,64
314,21	1,64
314,43	-6,96
314,64	-11,67
314,85	15,97
315,06	26,42
315,28	-5,73
315,49	0,82
315,70	-16,79
315,92	1,02
316,13	13,72
316,34	13,11
316,55	1,43
316,77	-13,72
316,98	13,72
317,19	-6,96
317,40	2,46
317,62	40,75
317,83	6,55
318,04	11,67
318,25	-6,14
318,47	-17,41
318,68	-4,30
318,89	28,06
319,11	-4,30
319,32	15,77
319,53	7,99
319,74	43,83
319,96	8,40
320,17	21,30
320,38	29,70
320,59	60,21
320,81	19,66
321,02	59,39
321,23	32,56
321,44	81,30
321,65	30,92
321,87	18,43
322,08	52,43
322,29	31,13
322,50	68,20
322,72	32,56
322,93	66,15
323,14	84,99
323,35	76,80
323,57	91,13
323,78	107,31
323,99	92,36
324,20	82,94
324,41	111,61
324,63	123,70
324,84	135,78
325,05	150,32
325,26	110,39
325,48	142,13
325,69	170,19
325,90	176,74
326,11	166,50
326,32	184,11
326,54	202,95
326,75	165,27
326,96	224,87
327,17	211,96
327,39	199,06
327,60	217,49
327,81	233,88
328,02	236,54
328,23	271,77
328,45	287,74
328,66	322,15
328,87	331,98
329,08	318,87
329,29	320,10
329,51	349,38
329,72	359,21
329,93	357,58
330,14	368,84
330,35	413,48
330,56	403,65
330,78	426,18
330,99	468,78
331,20	480,45
331,41	543,33
331,62	607,02
331,84	640,20
332,05	674,40
332,26	663,54
332,47	673,78
332,68	723,14
332,90	715,77
333,11	689,35
333,32	787,85
333,53	798,09
333,74	842,53
333,95	867,52
334,17	898,24
334,38	942,88
334,59	917,29
334,80	945,75
335,01	880,42
335,22	883,70
335,44	925,48
335,65	904,38
335,86	966,23
336,07	955,99
336,28	1004,73
336,49	1042,01
336,71	1129,86
336,92	1182,29
337,13	1227,14
337,34	1286,94
337,55	1381,76
337,76	1401,22
337,97	1423,34
338,19	1491,13
338,40	1518,57
338,61	1598,44
338,82	1647,80
339,03	1796,07
339,24	1830,68
339,45	1820,44
339,67	1874,30
339,88	1840,10
340,09	1828,84
340,30	1789,31
340,51	1900,52
340,72	1986,73
340,93	2019,91
341,15	2123,74
341,36	2166,55
341,57	2217,54
341,78	2298,03
341,99	2323,83
342,20	2376,87
342,41	2412,10
342,62	2310,11
342,84	2202,18
343,05	2128,86
343,26	2052,27
343,47	2139,51
343,68	2212,83
343,89	2348,20
344,10	2562,42
344,31	2611,77
344,53	2735,06
344,74	2762,30
344,95	2717,24
345,16	2763,73
345,37	2823,12
345,58	2910,16
345,79	3070,31
346,00	3099,81
346,21	3069,09
346,42	3100,62
346,64	3014,00
346,85	3157,35
347,06	3136,26
347,27	3258,93
347,48	3369,52
347,69	3279,82
347,90	3333,48
348,11	3334,50
348,32	3301,53
348,53	3434,03
348,75	3680,61
348,96	3771,95
349,17	4105,56
349,38	4228,03
349,59	4262,03
349,80	4398,22
350,01	4175,81
350,22	4255,68
350,43	4127,07
350,64	4342,92
350,85	4250,97
351,06	4161,88
351,28	4149,80
351,49	4116,42
351,70	4227,83
351,91	4306,06
352,12	4546,49
352,33	4613,87
352,54	5014,04
352,75	5024,28
352,96	5208,80
353,17	5357,49
353,38	5339,46
353,59	5405,00
353,80	5506,78
354,01	5458,66
354,22	5352,98
354,44	5304,65
354,65	5334,34
354,86	5307,11
355,07	5175,42
355,28	5133,64
355,49	4919,02
355,70	4728,35
355,91	4604,24
356,12	4462,11
356,33	4488,94
356,54	4548,33
356,75	4497,13
356,96	4406,82
357,17	4087,75
357,38	4041,46
357,59	3995,59
357,80	4262,44
358,01	4874,78
358,22	5159,45
358,43	5690,69
358,64	5940,54
358,85	6255,32
359,07	6091,48
359,28	6067,72
359,49	5751,11
359,70	5563,92
359,91	5662,02
360,12	5456,40
360,33	5469,92
360,54	5501,87
360,75	5639,08
360,96	5706,66
361,17	5833,64
361,38	6135,71
361,59	6611,46
361,80	6667,37
362,01	6610,64
362,22	6538,55
362,43	6582,38
362,64	6624,15
362,85	6892,44
363,06	6860,90
363,27	6979,89
363,48	6868,48
363,69	6878,51
363,90	6979,68
364,11	7294,25
364,32	7625,00
364,53	8093,37
364,74	8408,14
364,95	8730,08
365,16	8633,42
365,37	8755,89
365,58	8650,42
365,79	8759,37
366,00	8755,07
366,21	8653,49
366,42	8494,36
366,63	8353,66
366,84	8205,60
367,05	7919,90
367,26	7877,72
367,47	7828,77
367,68	7810,34
367,89	7942,64
368,10	7835,73
368,31	7779,82
368,52	8090,30
368,73	8671,92
368,94	8619,70
369,15	8253,72
369,36	8339,94
369,57	8145,39
369,78	8136,78
369,99	8536,14
370,20	8755,27
370,40	8891,05
370,61	8967,85
370,82	8636,49
371,03	8330,32
371,24	8159,11
371,45	8200,27
371,66	8016,57
371,87	7833,28
372,08	7877,51
372,29	7388,46
372,50	6950,81
372,71	7110,14
372,92	7144,34
373,13	7198,20
373,34	7175,47
373,55	7065,49
373,76	7038,05
373,97	7163,79
374,18	7624,79
374,39	8047,49
374,60	8510,95
374,81	8533,68
375,01	8265,60
375,22	8580,37
375,43	8319,46
375,64	8679,29
375,85	8647,75
376,06	9033,18
376,27	9468,78
376,48	9930,19
376,69	9995,93
376,90	10405,11
377,11	10772,11
377,32	10230,42
377,53	10183,73
377,74	9871,82
377,94	9301,05
378,15	9053,66
378,36	8517,30
378,57	8590,41
378,78	8339,33
378,99	8760,60
379,20	9104,04
379,41	9455,68
379,62	9518,55
379,83	9635,90
380,04	9592,89
380,25	9006,97
380,45	8611,30
380,66	8146,00
380,87	7567,04
381,08	7099,90
381,29	6919,47
381,50	6391,71
381,71	6200,84
381,92	6057,89
382,13	5794,52
382,34	5594,03
382,55	5670,62
382,75	5981,91
382,96	6283,37
383,17	6947,12
383,38	7573,80
383,59	7982,78
383,80	8286,70
384,01	8386,43
384,22	8489,24
384,43	8163,20
384,63	7711,63
384,84	7937,93
385,05	7736,00
385,26	8089,27
385,47	8365,75
385,68	8452,58
385,89	8434,76
386,10	8223,62
386,30	8349,98
386,51	8098,90
386,72	8374,14
386,93	8115,90
387,14	8049,95
387,35	8270,31
387,56	8040,94
387,77	8312,09
387,97	8861,77
388,18	9438,47
388,39	9657,61
388,60	10188,85
388,81	10034,02
389,02	10160,79
389,23	10275,07
389,43	10116,15
389,64	10388,53
389,85	10438,70
390,06	10846,04
390,27	11334,28
390,48	11083,20
390,69	10778,66
390,89	10758,18
391,10	9835,37
391,31	9052,43
391,52	8419,20
391,73	7440,88
391,94	6361,81
392,14	5543,24
392,35	5269,01
392,56	5628,84
392,77	6228,28
392,98	6810,11
393,19	7738,45
393,39	8645,70
393,60	9372,94
393,81	10339,78
394,02	10517,75
394,23	10962,57
394,44	10812,25
394,64	10643,29
394,85	10402,86
395,06	8953,92
395,27	8050,57
395,48	7233,22
395,69	6299,14
395,89	6539,57
396,10	7043,58
396,31	7723,50
396,52	9085,40
396,73	10108,36
396,93	11414,15
397,14	11764,97
397,35	12881,72
397,56	12991,49
397,77	13358,29
397,97	14054,19
398,18	14454,77
398,39	13812,12
398,60	14351,55
398,81	14055,21
399,01	14603,25
399,22	14218,64
399,43	14579,08
399,64	14593,21
399,85	14459,07
400,05	14714,45
400,26	14887,09
400,47	14972,49
400,68	15182,62
400,89	14958,16
401,09	15273,55
401,30	15552,27
401,51	14932,35
401,72	14904,30
401,93	15069,98
402,13	14836,30
402,34	14520,92
402,55	14839,99
402,76	14832,00
402,96	14711,79
403,17	14110,91
403,38	14308,34
403,59	13777,50
403,80	14923,75
404,00	14404,59
404,21	14122,79
404,42	14629,05
404,63	14503,92
404,83	14293,59
405,04	13404,98
405,25	13594,01
405,46	13470,72
405,66	13380,40
405,87	13776,28
406,08	13726,51
406,29	14100,67
406,49	13702,75
406,70	13877,24
406,91	13650,74
407,12	14812,75
407,32	14301,78
407,53	15336,01
407,74	15208,01
407,95	14640,11
408,15	14880,54
408,36	14181,57
408,57	13718,52
408,78	13498,57
408,98	13104,95
409,19	12661,98
409,40	13429,96
409,61	13430,58
409,81	13950,76
410,02	14430,60
410,23	14655,67
410,44	15351,78
410,64	15090,05
410,85	14813,37
411,06	15091,48
411,26	14697,45
411,47	14679,23
411,68	14582,36
411,89	13928,24
412,09	14443,71
412,30	14256,73
412,51	14005,44
412,72	14260,62
412,92	14822,79
413,13	14432,45
413,34	14298,30
413,54	14220,07
413,75	14256,12
413,96	14013,23
414,17	13799,01
414,37	13950,35
414,58	14007,70
414,79	14388,41
414,99	14162,52
415,20	14626,80
415,41	14522,35
415,61	14361,18
415,82	14194,47
416,03	13207,76
416,24	13308,72
416,44	13385,11
416,65	13610,39
416,86	13693,13
417,06	13310,16
417,27	13180,32
417,48	13160,86
417,68	13524,99
417,89	13807,20
418,10	13136,29
418,30	13427,71
418,51	13174,58
418,72	12906,30
418,92	13530,72
419,13	12844,86
419,34	13573,12
419,55	13453,52
419,75	13924,34
419,96	13830,96
420,17	14541,19
420,37	14184,85
420,58	13414,40
420,79	13227,42
420,99	13592,78
421,20	13408,87
421,41	12984,33
421,61	13013,82
421,82	12320,17
422,03	12923,09
422,23	12808,20
422,44	13231,52
422,65	13174,79
422,85	13175,81
423,06	13190,76
423,26	13418,09
423,47	13579,47
423,68	12933,33
423,88	13258,55
424,09	12946,64
424,30	12884,39
424,50	13005,63
424,71	13194,86
424,92	12944,80
425,12	12853,05
425,33	13306,27
425,54	13270,63
425,74	13071,77
425,95	12290,47
426,15	12769,70
426,36	11799,78
426,57	12653,37
426,77	12387,75
426,98	12783,01
427,19	12561,83
427,39	12581,90
427,60	11792,61
427,81	12010,72
428,01	11712,33
428,22	12049,22
428,42	10771,50
428,63	10862,63
428,84	10300,46
429,04	9632,01
429,25	9207,26
429,45	8923,00
429,66	9283,65
429,87	9810,79
430,07	10329,14
430,28	11090,37
430,49	11851,19
430,69	12660,75
430,90	12602,38
431,10	12521,49
431,31	12383,45
431,52	12874,76
431,72	12535,62
431,93	12618,35
432,13	12902,20
432,34	13040,44
432,55	12020,14
432,75	12488,92
432,96	12183,37
433,16	12004,37
433,37	12358,67
433,58	13062,56
433,78	13109,05
433,99	12237,43
434,19	13123,79
434,40	13165,37
434,60	13692,72
434,81	13725,49
435,02	13626,36
435,22	13899,36
435,43	13632,30
435,63	13605,48
435,84	13626,16
436,05	13583,36
436,25	12433,22
436,46	13148,16
436,66	12656,45
436,87	12388,16
437,07	11799,99
437,28	11777,66
437,48	11971,40
437,69	11637,17
437,90	12029,36
438,10	12355,60
438,31	12363,79
438,51	13026,11
438,72	12505,51
438,92	12388,16
439,13	12356,42
439,34	12143,02
439,54	12285,56
439,75	12171,28
439,95	12234,36
440,16	12631,05
440,36	12806,36
440,57	12505,92
440,77	12952,79
440,98	12623,88
441,18	12610,57
441,39	12478,68
441,60	13077,10
441,80	12795,91
442,01	12264,67
442,21	12719,93
442,42	12323,86
442,62	12615,49
442,83	12667,71
443,03	12921,25
443,24	13068,29
443,44	13006,65
443,65	13150,01
443,85	12936,40
444,06	12916,33
444,26	12629,00
444,47	12343,11
444,67	12619,99
444,88	12351,09
445,09	12158,18
445,29	12546,06
445,50	12710,51
445,70	12535,00
445,91	12918,79
446,11	12820,28
446,32	13278,62
446,52	13195,88
446,73	13153,08
446,93	13165,16
447,14	13126,87
447,34	13189,94
447,55	12791,82
447,75	13136,90
447,96	13268,38
448,16	12903,02
448,37	13051,30
448,57	12930,26
448,78	13238,07
448,98	13342,11
449,19	13336,78
449,39	13777,30
449,60	13581,92
449,80	13868,43
450,01	13869,46
450,21	13621,45
450,42	13677,36
450,62	13418,09
450,83	13292,34
451,03	12981,46
451,23	12933,74
451,44	12689,62
451,64	12685,12
451,85	12280,03
452,05	12453,70
452,26	12422,98
452,46	12522,51
452,67	12601,56
452,87	12684,50
453,08	12804,72
453,28	12351,09
453,49	12943,16
453,69	12407,21
453,90	12620,81
454,10	12888,28
454,31	12837,08
454,51	12878,04
454,71	12887,87
454,92	12790,59
455,12	12730,99
455,33	13245,03
455,53	13308,52
455,74	13769,31
455,94	13890,35
456,15	13891,37
456,35	14277,62
456,55	13781,40
456,76	13949,33
456,96	14402,55
457,17	13270,02
457,37	14655,26
457,58	13764,60
457,78	14466,03
457,99	14073,64
458,19	13089,39
458,39	14024,29
458,60	14469,92
458,80	14220,48
459,01	13780,99
459,21	13865,77
459,42	14397,43
459,62	13785,08
459,82	14986,42
460,03	14626,59
460,23	14833,23
460,44	14796,16
460,64	13880,11
460,85	15209,65
461,05	14352,78
461,25	14244,65
461,46	15480,80
461,66	14976,80
461,87	14443,50
462,07	14650,76
462,27	14103,54
462,48	13854,10
462,68	14332,30
462,89	13973,91
463,09	13851,44
463,29	14107,84
463,50	13882,57
463,70	14155,56
463,91	13662,82
464,11	13629,64
464,31	14179,93
464,52	14159,45
464,72	14576,83
464,93	14221,71
465,13	14504,53
465,33	13740,23
465,54	13439,79
465,74	13292,55
465,95	13720,98
466,15	13929,67
466,35	14297,89
466,56	14135,08
466,76	14369,57
466,96	14092,89
467,17	14202,66
467,37	14255,91
467,58	14299,74
467,78	14278,85
467,98	14691,10
468,19	14183,62
468,39	14539,14
468,59	14576,62
468,80	14098,22
469,00	13805,56
469,21	13869,87
469,41	13962,85
469,61	14413,81
469,82	13902,43
470,02	14599,97
470,22	15140,43
470,43	15170,12
470,63	14922,32
470,83	15967,60
471,04	15424,89
471,24	15593,64
471,45	15192,24
471,65	15337,44
471,85	15043,76
472,06	15238,73
472,26	15387,00
472,46	15450,49
472,67	15467,49
472,87	15812,37
473,07	15760,14
473,28	15753,39
473,48	16243,87
473,68	16140,86
473,89	16089,66
474,09	16263,12
474,29	16013,68
474,50	16180,39
474,70	15990,13
474,90	16117,51
475,11	16114,85
475,31	15954,50
475,51	15927,67
475,72	16162,57
475,92	16265,17
476,12	16387,64
476,33	16928,51
476,53	17046,06
476,73	17090,71
476,93	17298,58
477,14	17043,81
477,34	16834,71
477,54	16980,94
477,75	17282,81
477,95	17226,90
478,15	17352,85
478,36	17571,78
478,56	17681,75
478,76	17702,85
478,97	17862,18
479,17	17594,10
479,37	17587,34
479,57	17631,17
479,78	17614,17
479,98	17740,53
480,18	17989,15
480,39	18026,84
480,59	18338,95
480,79	18329,53
480,99	18293,48
481,20	18178,79
481,40	18080,29
481,60	18094,83
481,81	18052,64
482,01	18026,02
482,21	17994,68
482,41	17917,27
482,62	17968,06
482,82	17924,85
483,02	18200,50
483,23	17970,72
483,43	18144,80
483,63	17904,37
483,83	17837,60
484,04	17898,84
484,24	17091,53
484,44	16700,78
484,64	15815,64
484,85	15438,41
485,05	15372,26
485,25	15495,34
485,45	15735,98
485,66	16048,09
485,86	16414,06
486,06	16737,43
486,26	17064,90
486,47	17366,98
486,67	17723,33
486,87	17929,56
487,07	17957,82
487,28	17658,82
487,48	17592,26
487,68	17935,91
487,88	17706,74
488,09	18036,46
488,29	18293,89
488,49	18843,16
488,69	18801,17
488,90	19125,57
489,10	18890,05
489,30	18847,66
489,50	18772,71
489,71	18797,08
489,91	18795,44
490,11	18501,55
490,31	18287,75
490,52	18049,98
490,72	17762,44
490,92	17879,79
491,12	17812,82
491,32	17960,48
491,53	18279,15
491,73	18351,03
491,93	18551,73
492,13	18476,36
492,33	18309,66
492,54	18124,32
492,74	18440,73
492,94	18332,60
493,14	18660,27
493,35	18770,66
493,55	18866,91
493,75	19024,20
493,95	18685,87
494,15	18505,45
494,36	18598,01
494,56	18335,87
494,76	18331,16
494,96	18377,86
495,16	18396,90
495,37	18513,02
495,57	18358,81
495,77	18419,23
495,97	18480,67
496,17	18746,08
496,37	18299,62
496,58	18178,39
496,78	17691,79
496,98	17697,32
497,18	17496,00
497,38	17363,09
497,59	17534,91
497,79	17668,24
497,99	17753,23
498,19	17852,14
498,39	17750,56
498,59	17818,97
498,80	17406,71
499,00	17222,80
499,20	17087,84
499,40	16727,40
499,60	16812,59
499,80	16580,36
500,01	16660,84
500,21	16371,05
500,41	16372,08
500,61	16409,14
500,81	16262,92
501,01	16352,62
501,22	16447,85
501,42	16604,32
501,62	16510,31
501,82	16585,27
502,02	16595,51
502,22	16396,86
502,42	16259,23
502,63	16036,62
502,83	15801,10
503,03	15863,16
503,23	15908,62
503,43	15829,77
503,63	15804,58
503,83	15968,01
504,04	15748,06
504,24	15810,93
504,44	15868,89
504,64	16045,02
504,84	15866,64
505,04	15570,91
505,24	15733,32
505,44	15500,05
505,65	15365,50
505,85	15161,52
506,05	15101,11
506,25	14958,36
506,45	14721,21
506,65	14751,11
506,85	14739,23
507,05	14815,42
507,26	14809,27
507,46	15044,17
507,66	15216,20
507,86	15269,04
508,06	15440,46
508,26	15352,80
508,46	15221,12
508,66	15263,92
508,86	15207,60
509,06	15265,35
509,27	15178,32
509,47	15205,76
509,67	15232,59
509,87	15271,50
510,07	15390,69
510,27	15512,95
510,47	15637,47
510,67	15566,82
510,87	15533,23
511,07	15367,55
511,28	15206,99
511,48	14939,32
511,68	15018,37
511,88	15088,20
512,08	15027,59
512,28	14918,22
512,48	14807,84
512,68	14764,22
512,88	14627,82
513,08	14733,70
513,28	14693,15
513,48	14767,49
513,68	14955,70
513,89	14860,88
514,09	14871,33
514,29	15157,63
514,49	15040,90
514,69	14990,31
514,89	14885,46
515,09	14559,21
515,29	14038,83
515,49	13450,44
515,69	13084,68
515,89	12918,59
516,09	13171,31
516,29	13382,04
516,49	13489,36
516,69	13704,39
516,89	13592,57
517,09	13597,08
517,29	13549,98
517,50	13542,40
517,70	13697,02
517,90	13870,28
518,10	14034,12
518,30	14473,20
518,50	14398,45
518,70	14621,88
518,90	14844,29
519,10	14893,03
519,30	14824,84
519,50	14803,74
519,70	14850,44
519,90	14832,00
520,10	15080,22
520,30	15062,61
520,50	15115,65
520,70	15119,33
520,90	15030,25
521,10	14960,41
521,30	14729,40
521,50	14860,06
521,70	14577,03
521,90	14578,88
522,10	14758,89
522,30	14858,22
522,50	15030,86
522,70	15096,60
522,90	15418,95
523,10	15421,20
523,30	15425,10
523,50	15289,52
523,70	15255,32
523,90	15231,36
524,10	15254,09
524,30	15029,02
524,50	15155,58
524,70	14998,91
524,90	14700,32
525,10	14493,07
525,30	13881,75
525,50	13717,50
525,70	13559,60
525,90	13492,02
526,10	13617,56
526,30	13993,57
526,50	14133,03
526,70	14316,94
526,90	14467,88
527,10	14625,98
527,30	14725,30
527,50	14938,50
527,70	14978,84
527,90	15037,62
528,10	15043,35
528,30	14933,38
528,50	14902,45
528,70	14658,34
528,90	14705,64
529,10	14681,27
529,30	14730,63
529,50	14923,14
529,70	14917,81
529,90	15103,77
530,10	15083,90
530,29	14907,57
530,49	14889,76
530,69	14733,91
530,89	14531,36
531,09	14215,98
531,29	13985,17
531,49	13891,99
531,69	13658,52
531,89	13784,26
532,09	13948,92
532,29	13907,14
532,49	13997,66
532,69	13996,02
532,89	14037,60
533,09	14013,23
533,29	14050,50
533,49	13950,76
533,68	14068,52
533,88	14296,05
534,08	14239,12
534,28	14232,97
534,48	14425,48
534,68	14381,66
534,88	14220,89
535,08	14261,24
535,28	13986,40
535,48	13712,79
535,68	13561,03
535,88	13459,87
536,08	13594,21
536,27	13661,59
536,47	13649,71
536,67	13806,18
536,87	13792,86
537,07	13680,43
537,27	13788,56
537,47	13618,38
537,67	13389,41
537,87	13429,15
538,07	13382,04
538,27	13169,67
538,46	13223,73
538,66	12974,91
538,86	12746,15
539,06	12771,54
539,26	12676,52
539,46	12509,81
539,66	12487,49
539,86	12532,14
540,06	12712,56
540,25	12691,06
540,45	12763,15
540,65	12815,37
540,85	12851,82
541,05	12904,05
541,25	12761,30
541,45	12767,65
541,65	12535,41
541,85	12579,65
542,04	12508,79
542,24	12474,59
542,44	12517,80
542,64	12655,01
542,84	12730,79
543,04	12604,22
543,24	12605,45
543,43	12597,67
543,63	12510,63
543,83	12459,43
544,03	12366,86
544,23	12423,80
544,43	12386,73
544,63	12262,83
544,82	12398,81
545,02	12196,06
545,22	12316,69
545,42	12064,99
545,62	12256,27
545,82	12178,66
546,02	12100,22
546,21	12017,48
546,41	11877,40
546,61	11720,12
546,81	11820,47
547,01	11676,29
547,21	11773,57
547,40	11724,62
547,60	11813,30
547,80	11837,87
548,00	11843,20
548,20	11856,72
548,40	11735,68
548,59	11772,95
548,79	11751,24
548,99	11694,52
549,19	11555,25
549,39	11495,66
549,59	11511,43
549,78	11372,98
549,98	11438,11
550,18	11420,50
550,38	11342,06
550,58	11429,71
550,77	11464,53
550,97	11513,48
551,17	11306,43
551,37	11298,03
551,57	11194,81
551,76	10997,18
551,96	10984,49
552,16	10984,28
552,36	11150,37
552,56	10990,83
552,75	11061,08
552,95	11020,94
553,15	11128,05
553,35	11007,42
553,55	10978,96
553,74	11020,53
553,94	10842,97
554,14	10840,10
554,34	10810,20
554,54	10664,59
554,73	10783,99
554,93	10600,70
555,13	10635,51
555,33	10424,37
555,53	10458,36
555,72	10292,27
555,92	10233,70
556,12	10253,77
556,32	10171,85
556,51	10216,09
556,71	10302,72
556,91	10106,32
557,11	10055,94
557,30	9917,29
557,50	9805,88
557,70	9671,94
557,90	9659,24
558,10	9616,65
558,29	9621,36
558,49	9680,54
558,69	9616,85
558,89	9543,94
559,08	9651,05
559,28	9709,01
559,48	9746,49
559,68	9824,72
559,87	9904,59
560,07	9779,26
560,27	9719,25
560,47	9566,88
560,66	9563,81
560,86	9422,29
561,06	9383,59
561,25	9530,63
561,45	9550,29
561,65	9549,68
561,85	9471,24
562,04	9512,81
562,24	9521,42
562,44	9476,36
562,64	9349,39
562,83	9286,92
563,03	9314,98
563,23	9281,39
563,42	9311,91
563,62	9359,22
563,82	9247,60
564,02	9228,97
564,21	9124,11
564,41	9008,60
564,61	9007,38
564,80	8953,72
565,00	8894,74
565,20	8849,07
565,40	8922,18
565,59	9013,93
565,79	9037,69
565,99	9086,02
566,18	9038,51
566,38	9042,81
566,58	8962,73
566,78	8890,85
566,97	8870,37
567,17	8746,06
567,37	8695,27
567,56	8691,37
567,76	8602,90
567,96	8621,13
568,15	8579,35
568,35	8667,00
568,55	8652,46
568,74	8575,46
568,94	8561,12
569,14	8413,26
569,33	8352,44
569,53	8156,24
569,73	8195,56
569,92	8058,76
570,12	8048,93
570,32	8134,33
570,52	8160,54
570,71	8229,56
570,91	8268,88
571,11	8335,64
571,30	8312,09
571,50	8289,97
571,70	8365,75
571,89	8297,14
572,09	8308,20
572,28	8249,83
572,48	8269,70
572,68	8246,15
572,87	8224,23
573,07	8254,13
573,27	8112,62
573,46	8175,49
573,66	8134,12
573,86	7971,72
574,05	8068,59
574,25	7943,66
574,45	7858,26
574,64	7879,35
574,84	7853,35
575,04	7887,55
575,23	7903,93
575,43	7977,45
575,62	7961,27
575,82	7904,54
576,02	7897,38
576,21	7922,36
576,41	7916,22
576,61	7802,76
576,80	7721,66
577,00	7675,58
577,19	7577,69
577,39	7686,85
577,59	7624,79
577,78	7590,18
577,98	7786,38
578,18	7620,70
578,37	7755,04
578,57	7811,57
578,76	7799,07
578,96	7766,72
579,16	7783,51
579,35	7791,29
579,55	7737,23
579,74	7697,29
579,94	7692,17
580,14	7721,87
580,33	7782,49
580,53	7825,90
580,72	7751,77
580,92	7813,21
581,12	7771,63
581,31	7847,61
581,51	7798,66
581,70	7732,11
581,90	7790,47
582,10	7790,06
582,29	7784,94
582,49	7723,09
582,68	7761,80
582,88	7736,41
583,07	7725,35
583,27	7678,24
583,47	7677,63
583,66	7703,64
583,86	7511,74
584,05	7526,08
584,25	7399,93
584,44	7391,32
584,64	7352,00
584,84	7272,95
585,03	7282,78
585,23	7235,27
585,42	7237,11
585,62	7234,45
585,81	7344,84
586,01	7313,50
586,20	7312,68
586,40	7289,34
586,60	7106,66
586,79	7139,83
586,99	7060,58
587,18	7040,30
587,38	6911,89
587,57	6670,64
587,77	6492,88
587,96	6284,19
588,16	6153,33
588,35	6160,09
588,55	6217,84
588,75	6261,87
588,94	6389,66
589,14	6525,65
589,33	6539,98
589,53	6663,68
589,72	6597,33
589,92	6675,35
590,11	6541,21
590,31	6517,66
590,50	6522,37
590,70	6510,70
590,89	6439,63
591,09	6482,44
591,28	6409,73
591,48	6449,05
591,67	6372,25
591,87	6480,39
592,06	6366,73
592,26	6331,50
592,45	6287,47
592,65	6355,26
592,84	6279,07
593,04	6252,65
593,23	6132,64
593,43	6133,67
593,62	6059,33
593,82	6060,96
594,01	6035,77
594,21	6028,40
594,40	5983,14
594,60	6004,64
594,79	6066,90
594,99	5945,87
595,18	5997,68
595,38	5937,88
595,57	5900,81
595,77	5932,35
595,96	5851,25
596,16	5801,28
596,35	5778,14
596,55	5734,31
596,74	5769,95
596,94	5688,23
597,13	5669,19
597,33	5595,05
597,52	5550,00
597,72	5560,03
597,91	5513,95
598,11	5585,43
598,30	5492,65
598,50	5488,35
598,69	5491,01
598,88	5432,65
599,08	5402,75
599,27	5310,18
599,47	5258,77
599,66	5249,56
599,86	5171,53
600,05	5204,30
600,25	5203,27
600,44	5056,03
600,64	5066,67
600,83	5062,99
601,02	5025,10
601,22	4920,86
601,41	4914,51
601,61	4973,49
601,80	4983,73
602,00	4997,66
602,19	4975,13
602,38	4909,39
602,58	4913,90
602,77	4955,27
602,97	4838,33
603,16	4799,21
603,36	4727,74
603,55	4816,41
603,74	4727,12
603,94	4715,45
604,13	4724,46
604,33	4670,60
604,52	4608,75
604,72	4621,65
604,91	4605,06
605,10	4537,07
605,30	4470,92
605,49	4451,06
605,69	4447,78
605,88	4421,15
606,07	4473,79
606,27	4393,51
606,46	4355,21
606,66	4382,65
606,85	4274,93
607,04	4185,64
607,24	4206,12
607,43	4137,31
607,63	4048,83
607,82	4080,17
608,01	4101,47
608,21	4094,30
608,40	4059,28
608,60	3952,99
608,79	3994,97
608,98	3887,86
609,18	3946,23
609,37	3895,65
609,57	3881,31
609,76	3840,35
609,95	3909,16
610,15	3891,55
610,34	3872,71
610,53	3901,79
610,73	3793,45
610,92	3791,81
611,11	3740,41
611,31	3728,74
611,50	3694,95
611,70	3686,96
611,89	3693,10
612,08	3616,30
612,28	3649,89
612,47	3600,33
612,66	3573,50
612,86	3532,54
613,05	3505,10
613,24	3548,11
613,44	3576,37
613,63	3612,41
613,82	3636,58
614,02	3555,68
614,21	3482,78
614,41	3519,43
614,60	3424,00
614,79	3384,27
614,99	3345,15
615,18	3333,07
615,37	3305,42
615,57	3379,35
615,76	3385,91
615,95	3351,30
616,15	3384,06
616,34	3413,76
616,53	3446,32
616,73	3478,47
616,92	3469,05
617,11	3484,82
617,30	3483,39
617,50	3488,31
617,69	3462,91
617,88	3452,47
618,08	3375,05
618,27	3460,45
618,46	3419,49
618,66	3400,65
618,85	3420,72
619,04	3398,40
619,24	3455,33
619,43	3429,53
619,62	3464,96
619,82	3441,41
620,01	3339,62
620,20	3374,23
620,39	3269,38
620,59	3315,46
620,78	3298,25
620,97	3230,67
621,17	3248,49
621,36	3348,22
621,55	3232,10
621,74	3220,84
621,94	3233,54
622,13	3197,70
622,32	3157,97
622,52	3191,35
622,71	3130,32
622,90	3190,74
623,09	3166,36
623,29	3062,74
623,48	3083,63
623,67	3118,24
623,86	3025,67
624,06	3045,12
624,25	3072,57
624,44	3033,25
624,64	2940,88
624,83	3024,03
625,02	2961,57
625,21	3036,32
625,41	3079,74
625,60	2969,76
625,79	2975,29
625,98	2939,65
626,18	3057,82
626,37	2886,20
626,56	2826,61
626,75	2801,42
626,95	2726,87
627,14	2766,60
627,33	2793,84
627,52	2841,56
627,72	2815,14
627,91	2785,03
628,10	2770,49
628,29	2754,93
628,49	2739,77
628,68	2685,09
628,87	2651,30
629,06	2701,48
629,25	2699,43
629,45	2650,48
629,64	2724,62
629,83	2705,78
630,02	2693,08
630,22	2679,36
630,41	2644,13
630,60	2611,98
630,79	2593,14
630,98	2590,48
631,18	2627,34
631,37	2613,82
631,56	2649,46
631,75	2688,98
631,94	2686,12
632,14	2629,18
632,33	2544,60
632,52	2560,78
632,71	2497,50
632,90	2525,15
633,10	2506,92
633,29	2536,82
633,48	2472,92
633,67	2483,57
633,86	2540,10
634,06	2517,36
634,25	2475,18
634,44	2491,97
634,63	2439,13
634,82	2415,17
635,02	2389,98
635,21	2400,22
635,40	2363,77
635,59	2371,34
635,78	2346,56
635,97	2392,03
636,17	2369,30
636,36	2405,54
636,55	2301,30
636,74	2393,05
636,93	2284,10
637,12	2326,49
637,32	2305,19
637,51	2248,87
637,70	2285,94
637,89	2293,11
638,08	2235,77
638,27	2181,09
638,47	2220,61
638,66	2253,79
638,85	2144,63
639,04	2143,40
639,23	2126,00
639,42	2128,45
639,62	2161,84
639,81	2105,93
640,00	2067,63
640,19	2052,47
640,38	2061,49
640,57	2098,96
640,76	2040,19
640,95	2065,38
641,15	2024,42
641,34	2065,99
641,53	2045,51
641,72	2059,85
641,91	2044,90
642,10	1992,88
642,29	1993,90
642,49	2031,38
642,68	1956,22
642,87	1982,02
643,06	1984,07
643,25	1900,92
643,44	1935,33
643,63	1902,36
643,82	1911,16
644,01	1933,08
644,21	1880,65
644,40	1872,05
644,59	1899,70
644,78	1838,46
644,97	1801,80
645,16	1759,82
645,35	1791,77
645,54	1781,32
645,73	1719,06
645,92	1744,25
646,12	1768,01
646,31	1808,56
646,50	1812,86
646,69	1759,41
646,88	1734,22
647,07	1743,03
647,26	1752,86
647,45	1760,64
647,64	1739,34
647,83	1724,59
648,02	1632,44
648,22	1654,76
648,41	1628,14
648,60	1578,16
648,79	1590,04
648,98	1616,26
649,17	1608,27
649,36	1650,66
649,55	1679,13
649,74	1665,61
649,93	1645,34
650,12	1643,29
650,31	1671,14
650,50	1546,42
650,69	1612,78
650,88	1535,57
651,08	1514,88
651,27	1594,34
651,46	1581,24
651,65	1541,10
651,84	1491,13
652,03	1527,78
652,22	1523,28
652,41	1517,54
652,60	1493,38
652,79	1511,20
652,98	1506,28
653,17	1476,59
653,36	1466,35
653,55	1456,72
653,74	1431,73
653,93	1389,96
654,12	1389,75
654,31	1397,94
654,50	1255,00
654,69	1144,40
654,88	1163,66
655,07	1096,48
655,26	1036,89
655,45	1040,16
655,64	1084,19
655,83	1208,92
656,02	1234,93
656,21	1268,72
656,40	1283,26
656,59	1366,00
656,78	1365,18
656,97	1365,18
657,17	1367,02
657,36	1301,48
657,55	1308,04
657,74	1297,39
657,93	1280,39
658,12	1240,45
658,31	1210,76
658,50	1257,45
658,69	1235,13
658,87	1205,23
659,06	1259,71
659,25	1200,52
659,44	1187,82
659,63	1159,15
659,82	1208,51
660,01	1175,33
660,20	1183,32
660,39	1132,94
660,58	1175,53
660,77	1165,09
660,96	1140,51
661,15	1090,95
661,34	1145,22
661,53	1143,38
661,72	1112,66
661,91	1087,47
662,10	1131,91
662,29	1038,93
662,48	1044,87
662,67	1021,73
662,86	1036,89
663,05	1049,38
663,24	984,46
663,43	1027,67
663,62	1045,69
663,81	982,62
664,00	1005,55
664,19	961,32
664,38	1048,36
664,57	977,09
664,76	978,93
664,94	955,79
665,13	991,42
665,32	935,51
665,51	911,35
665,70	864,65
665,89	895,99
666,08	869,77
666,27	941,86
666,46	885,75
666,65	920,36
666,84	879,19
667,03	886,36
667,22	844,99
667,41	813,45
667,60	850,11
667,78	896,19
667,97	876,33
668,16	783,76
668,35	868,54
668,54	859,74
668,73	817,96
668,92	792,36
669,11	815,71
669,30	750,79
669,49	784,99
669,68	770,65
669,86	791,13
670,05	752,01
670,24	690,78
670,43	728,87
670,62	684,23
670,81	748,53
671,00	747,92
671,19	723,75
671,38	687,09
671,57	697,54
671,75	760,21
671,94	695,69
672,13	699,59
672,32	722,93
672,51	654,94
672,70	712,49
672,89	653,10
673,08	668,05
673,26	664,36
673,45	614,19
673,64	631,18
673,83	587,77
674,02	583,88
674,21	628,73
674,40	558,69
674,59	638,15
674,77	579,98
674,96	590,63
675,15	568,11
675,34	573,64
675,53	542,92
675,72	536,57
675,91	594,93
676,09	576,09
676,28	481,27
676,47	487,42
676,66	533,70
676,85	545,99
677,04	485,37
677,22	485,98
677,41	461,41
677,60	446,46
677,79	422,09
677,98	484,55
678,17	453,01
678,36	417,38
678,54	448,51
678,73	413,69
678,92	401,61
679,11	394,23
679,30	381,95
679,48	365,97
679,67	420,24
679,86	418,40
680,05	384,81
680,24	355,32
680,43	378,46
680,61	377,85
680,80	366,38
680,99	368,02
681,18	363,51
681,37	324,19
681,55	326,04
681,74	317,84
681,93	335,46
682,12	345,70
682,31	365,56
682,49	315,18
682,68	301,26
682,87	289,99
683,06	232,65
683,25	264,60
683,43	261,73
683,62	263,16
683,81	272,79
684,00	268,28
684,19	242,68
684,37	272,79
684,56	247,39
684,75	254,77
684,94	220,36
685,12	241,87
685,31	193,33
685,50	88,88
685,69	36,86
685,88	-41,98
686,06	-101,58
686,25	-91,54
686,44	-13,52
686,63	43,21
686,81	166,30
687,00	204,59
687,19	240,64
687,38	247,19
687,56	207,05
687,75	242,27
687,94	193,53
688,13	174,69
688,31	171,82
688,50	166,09
688,69	161,79
688,88	173,26
689,06	159,74
689,25	190,67
689,44	169,16
689,63	163,22
689,81	181,86
690,00	165,68
690,19	136,19
690,38	151,96
690,56	163,43
690,75	129,64
690,94	136,60
691,13	119,19
691,31	112,02
691,50	114,07
691,69	76,39
691,87	82,12
692,06	69,84
692,25	59,80
692,44	76,39
692,62	76,39
692,81	73,73
693,00	38,50
693,18	68,61
693,37	65,94
693,56	77,00
693,75	28,47
693,93	41,78
694,12	-1,02
694,31	19,25
694,49	10,44
694,68	12,70
694,87	-6,55
695,05	22,53
695,24	35,02
695,43	20,68
695,62	-10,85
695,80	11,47
695,99	34,61
696,18	-21,71
696,36	-94,62
696,55	-57,14
696,74	-103,01
696,92	-85,61
697,11	-27,65
697,30	-100,35
697,48	-98,92
697,67	-58,98
697,86	-67,79
698,04	-113,05
698,23	-92,57
698,42	-66,76
698,60	-109,16
698,79	-124,52
698,98	-91,95
699,16	-115,51
699,35	-180,02
699,54	-105,68
699,72	-77,41
699,91	-116,94
700,10	-107,93
700,28	-161,79
700,47	-144,18
700,66	-124,52
700,84	-160,77
701,03	-158,31
701,21	-148,27
701,40	-182,68
701,59	-180,02
701,77	-153,39
701,96	-138,65
702,15	-162,40
702,33	-139,88
702,52	-135,17
702,71	-126,97
702,89	-127,38
703,08	-178,38
703,26	-210,12
703,45	-160,97
703,64	-142,33
703,82	-197,83
704,01	-158,31
704,20	-208,07
704,38	-205,62
704,57	-211,76
704,75	-224,87
704,94	-194,35
705,13	-241,25
705,31	-214,01
705,50	-221,39
705,68	-227,53
705,87	-218,72
706,06	-237,97
706,24	-210,53
706,43	-250,26
706,61	-222,41
706,80	-250,88
706,99	-241,05
707,17	-222,82
707,36	-247,60
707,54	-251,70
707,73	-263,78
707,92	-294,50
708,10	-295,32
708,29	-271,15
708,47	-214,63
708,66	-250,26
708,84	-269,10
709,03	-324,60
709,22	-315,39
709,40	-289,38
709,59	-299,00
709,77	-287,13
709,96	-265,21
710,14	-283,23
710,33	-285,08
710,52	-287,33
710,70	-275,04
710,89	-317,44
711,07	-307,40
711,26	-317,23
711,44	-313,54
711,63	-306,38
711,81	-245,14
712,00	-310,06
712,19	-296,75
712,37	-331,98
712,56	-330,95
712,74	-327,47
712,93	-270,33
713,11	-343,65
713,30	-336,07
713,48	-347,13
713,67	-361,88
713,85	-367,41
714,04	-365,97
714,22	-353,68
714,41	-346,52
714,59	-370,07
714,78	-340,58
714,97	-336,07
715,15	-373,96
715,34	-388,91
715,52	-382,15
715,71	-374,57
715,89	-339,96
716,08	-397,72
716,26	-334,02
716,45	-345,90
716,63	-318,25
716,82	-385,22
717,00	-297,37
717,19	-292,04
717,37	-297,37
717,56	-292,25
717,74	-287,94
717,93	-321,53
718,11	-282,21
718,30	-270,74
718,48	-294,29
718,67	-280,16
718,85	-269,72
719,04	-240,02
719,22	-227,12
719,41	-278,32
719,59	-253,33
719,78	-286,31
719,96	-242,68
720,15	-273,61
720,33	-277,50
720,52	-278,32
720,70	-304,94
720,88	-318,66
721,07	-313,34
721,25	-363,31
721,44	-327,88
721,62	-424,13
721,81	-408,98
721,99	-363,51
722,18	-405,50
722,36	-435,19
722,55	-410,00
722,73	-417,79
722,92	-373,14
723,10	-394,85
723,28	-382,77
723,47	-376,62
723,65	-408,77
723,84	-343,03
724,02	-384,40
724,21	-351,64
724,39	-339,35
724,58	-357,37
724,76	-346,11
724,94	-373,96
725,13	-360,44
725,31	-355,73
725,50	-372,94
725,68	-336,48
725,87	-329,52
726,05	-409,59
726,23	-414,71
726,42	-428,64
726,60	-412,26
726,79	-371,71
726,97	-378,26
727,16	-358,19
727,34	-399,56
727,52	-327,06
727,71	-397,92
727,89	-395,67
728,08	-456,08
728,26	-430,48
728,44	-366,38
728,63	-410,41
728,81	-362,49
729,00	-389,93
729,18	-345,90
729,36	-355,12
729,55	-372,53
729,73	-392,80
729,92	-407,14
730,10	-407,96
730,28	-378,67
730,47	-342,01
730,65	-411,03
730,84	-420,04
731,02	-401,20
731,20	-375,80
731,39	-338,94
731,57	-386,86
731,75	-377,03
731,94	-428,84
732,12	-386,25
732,31	-392,80
732,49	-365,97
732,67	-417,99
732,86	-436,63
733,04	-437,86
733,22	-449,53
733,41	-398,94
733,59	-429,25
733,78	-446,87
733,96	-390,14
734,14	-421,47
734,33	-447,28
734,51	-455,88
734,69	-438,67
734,88	-431,92
735,06	-416,56
735,24	-450,96
735,43	-398,33
735,61	-442,16
735,79	-422,09
735,98	-418,81
736,16	-423,72
736,34	-411,85
736,53	-379,69
736,71	-487,83
736,89	-428,44
737,08	-419,22
737,26	-446,25
737,44	-451,58
737,63	-454,85
737,81	-427,00
737,99	-426,18
738,18	-482,09
738,36	-428,03
738,54	-437,04
738,73	-413,69
738,91	-451,37
739,09	-459,56
739,28	-446,05
739,46	-449,12
739,64	-431,30
739,82	-424,34
740,01	-479,22
740,19	-482,71
740,37	-445,84
740,56	-430,07
740,74	-484,34
740,92	-407,96
741,11	-416,35
741,29	-427,21
741,47	-423,32
741,65	-453,63
741,84	-469,80
742,02	-464,68
742,20	-439,29
742,39	-369,45
742,57	-449,53
742,75	-438,06
742,93	-486,19
743,12	-414,51
743,30	-445,02
743,48	-471,85
743,67	-487,62
743,85	-454,44
744,03	-494,38
744,21	-464,07
744,40	-459,36
744,58	-444,20
744,76	-439,49
744,94	-489,26
745,13	-518,34
745,31	-461,00
745,49	-442,16
745,67	-466,73
745,86	-480,04
746,04	-452,19
746,22	-459,97
746,40	-470,62
746,59	-430,48
746,77	-475,54
746,95	-471,44
747,13	-470,83
747,32	-461,00
747,50	-424,13
747,68	-461,61
747,86	-443,59
748,05	-448,71
748,23	-423,93
748,41	-445,84
748,59	-445,02
748,77	-448,91
748,96	-450,76
749,14	-411,03
749,32	-436,22
749,50	-475,13
749,69	-501,75
749,87	-435,19
750,05	-431,30
750,23	-433,96
750,41	-467,96
750,60	-456,08
750,78	-480,04
750,96	-442,36
751,14	-452,81
751,32	-403,04
751,51	-468,37
751,69	-482,71
751,87	-458,13
752,05	-428,64
752,23	-455,47
752,42	-498,48
752,60	-444,00
752,78	-433,35
752,96	-419,22
753,14	-499,29
753,33	-499,50
753,51	-429,66
753,69	-440,52
753,87	-479,63
754,05	-465,91
754,23	-482,30
754,42	-482,71
754,60	-492,33
754,78	-488,65
754,96	-467,35
755,14	-437,04
755,32	-452,40
755,51	-450,76
755,69	-440,52
755,87	-515,88
756,05	-496,43
756,23	-463,66
756,41	-448,51
756,60	-489,67
756,78	-454,85
756,96	-493,56
757,14	-486,60
757,32	-435,40
757,50	-485,98
757,68	-456,90
757,87	-448,71
758,05	-441,95
758,23	-495,40
758,41	-487,83
758,59	-492,54
758,77	-511,99
758,95	-457,11
759,14	-444,41
759,32	-363,51
759,50	-337,30
759,68	-313,75
759,86	-235,93
760,04	-234,70
760,22	-161,79
760,40	-118,17
760,59	-80,28
760,77	-88,68
760,95	-59,39
761,13	-106,08
761,31	-128,61
761,49	-141,72
761,67	-170,19
761,85	-117,76
762,03	-150,32
762,22	-109,36
762,40	-146,02
762,58	-156,87
762,76	-125,75
762,94	-94,82
763,12	-115,92
763,30	-111,00
763,48	-125,95
763,66	-162,40
763,84	-171,62
764,02	-132,71
764,21	-155,03
764,39	-190,46
764,57	-177,35
764,75	-181,04
764,93	-180,22
765,11	-216,06
765,29	-289,17
765,47	-272,18
765,65	-291,02
765,83	-298,59
766,01	-297,37
766,19	-344,88
766,37	-334,64
766,56	-346,52
766,74	-376,62
766,92	-386,45
767,10	-399,35
767,28	-432,53
767,46	-402,22
767,64	-408,98
767,82	-445,23
768,00	-466,73
768,18	-494,79
768,36	-460,18
768,54	-473,08
768,72	-471,85
768,90	-457,52
769,08	-485,37
769,26	-501,55
769,44	-501,34
769,62	-473,70
769,80	-480,45
769,98	-511,17
770,16	-503,19
770,34	-485,98
770,52	-466,73
770,71	-514,86
770,89	-495,20
771,07	-513,22
771,25	-496,63
771,43	-496,43
771,61	-487,42
771,79	-520,80
771,97	-477,79
772,15	-513,84
772,33	-498,07
772,51	-517,11
772,69	-527,56
772,87	-505,44
773,05	-532,88
773,23	-467,96
773,41	-451,78
773,59	-498,48
773,77	-498,89
773,95	-487,62
774,13	-499,29
774,31	-485,98
774,49	-479,84
774,67	-487,83
774,85	-448,30
775,03	-460,38
775,21	-470,62
775,39	-459,15
775,57	-508,72
775,75	-456,70
775,93	-467,76
776,10	-454,24
776,28	-516,29
776,46	-487,62
776,64	-488,85
776,82	-517,32
777,00	-495,81
777,18	-452,40
777,36	-466,94
777,54	-472,67
777,72	-487,21
777,90	-491,31
778,08	-493,56
778,26	-433,35
778,44	-458,74
778,62	-511,17
778,80	-496,63
778,98	-413,28
779,16	-454,44
779,34	-445,23
779,52	-460,59
779,70	-465,09
779,88	-462,64
780,05	-474,31
780,23	-446,25
780,41	-443,39
780,59	-465,09
780,77	-438,06
780,95	-469,39
781,13	-428,84
781,31	-423,32
781,49	-458,95
781,67	-429,05
781,85	-464,07
782,03	-397,10
782,21	-441,75
782,39	-472,26
782,56	-432,12
782,74	-433,15
782,92	-424,34
783,10	-432,74
783,28	-435,19
783,46	-444,41
783,64	-472,88
783,82	-448,71
784,00	-468,17
784,18	-417,38
784,35	-427,00
784,53	-432,33
784,71	-392,60
784,89	-396,90
785,07	-421,27
785,25	-404,47
785,43	-366,79
785,61	-466,32
785,79	-412,26
785,96	-397,10
786,14	-432,12
786,32	-419,01
786,50	-399,35
786,68	-415,33
786,86	-383,58
787,04	-422,50
787,22	-380,51
787,39	-415,94
787,57	-377,03
787,75	-399,76
787,93	-394,85
788,11	-385,02
788,29	-402,22
788,47	-383,17
788,65	-386,86
788,82	-367,00
789,00	-330,95
789,18	-412,67
789,36	-333,61
789,54	-384,61
789,72	-361,47
789,89	-404,68
790,07	-367,61
790,25	-378,46
790,43	-402,22
790,61	-370,48
790,79	-330,13
790,96	-390,55
791,14	-340,37
791,32	-365,15
791,50	-425,98
791,68	-349,18
791,86	-372,94
792,03	-362,29
792,21	-379,28
792,39	-369,66
792,57	-387,68
792,75	-350,61
792,93	-355,94
793,10	-360,44
793,28	-376,83
793,46	-332,39
793,64	-326,86
793,82	-365,36
793,99	-352,46
794,17	-374,98
794,35	-361,06
794,53	-337,10
794,71	-359,62
794,88	-340,58
795,06	-341,40
795,24	-372,32
795,42	-372,94
795,60	-369,25
795,77	-326,65
795,95	-371,50
796,13	-341,60
796,31	-349,18
796,49	-378,26
796,66	-334,43
796,84	-361,67
797,02	-346,31
797,20	-346,72
797,37	-378,46
797,55	-329,72
797,73	-329,31
797,91	-346,72
798,08	-345,29
798,26	-360,03
798,44	-338,32
798,62	-336,89
798,80	-359,83
798,97	-329,72
799,15	-321,94
799,33	-344,06
799,51	-330,54
799,68	-325,01
799,86	-336,89
800,04	-357,37
800,22	-319,28
800,39	-315,80
800,57	-308,22
800,75	-355,94
800,93	-313,34
801,10	-296,14
801,28	-345,49
801,46	-321,74
801,63	-325,83
801,81	-300,64
801,99	-315,59
802,17	-349,38
802,34	-336,48
802,52	-317,44
802,70	-319,69
802,88	-302,69
803,05	-291,02
803,23	-274,22
803,41	-322,96
803,58	-333,20
803,76	-306,99
803,94	-313,95
804,12	-296,75
804,29	-310,27
804,47	-322,35
804,65	-336,69
804,82	-310,27
805,00	-275,04
805,18	-345,70
805,35	-316,00
805,53	-291,84
805,71	-283,03
805,89	-302,69
806,06	-337,91
806,24	-271,36
806,42	-308,42
806,59	-283,23
806,77	-301,05
806,95	-332,39
807,12	-305,76
807,30	-275,25
807,48	-305,35
807,65	-289,58
807,83	-330,13
808,01	-264,60
808,18	-296,14
808,36	-246,99
808,54	-301,46
808,71	-286,10
808,89	-306,79
809,07	-277,29
809,24	-279,34
809,42	-308,42
809,60	-279,34
809,77	-293,27
809,95	-262,75
810,13	-272,18
810,30	-248,42
810,48	-254,56
810,66	-246,17
810,83	-243,09
811,01	-238,79
811,18	-281,39
811,36	-275,66
811,54	-229,58
811,71	-249,85
811,89	-271,77
812,07	-232,24
812,24	-280,98
812,42	-278,93
812,59	-254,56
812,77	-237,97
812,95	-250,47
813,12	-216,68
813,30	-230,60
813,48	-192,10
813,65	-225,69
813,83	-224,46
814,00	-247,19
814,18	-231,01
814,36	-231,22
814,53	-208,69
814,71	-218,11
814,88	-203,57
815,06	-190,05
815,24	-204,59
815,41	-224,66
815,59	-196,81
815,76	-200,70
815,94	-211,15
816,12	-224,05
816,29	-209,92
816,47	-178,99
816,64	-141,92
816,82	-227,73
817,00	-188,62
817,17	-198,04
817,35	-160,56
817,52	-209,30
817,70	-206,03
817,87	-155,65
818,05	-175,10
818,23	-206,44
818,40	-191,49
818,58	-202,34
818,75	-202,13
818,93	-203,16
819,10	-206,44
819,28	-154,21
819,46	-187,59
819,63	-189,23
819,81	-224,46
819,98	-208,89
820,16	-172,03
820,33	-197,22
820,51	-204,18
820,68	-180,63
820,86	-227,53
821,03	-193,33
821,21	-215,24
821,39	-205,62
821,56	-191,89
821,74	-196,81
821,91	-214,83
822,09	-198,65
822,26	-200,50
822,44	-176,33
822,61	-204,39
822,79	-198,65
822,96	-175,31
823,14	-209,30
823,31	-189,85
823,49	-173,87
823,66	-188,41
823,84	-208,07
824,01	-172,85
824,19	-216,47
824,36	-204,18
824,54	-187,18
824,71	-197,63
824,89	-206,44
825,06	-184,32
825,24	-182,27
825,41	-178,58
825,59	-199,68
825,76	-211,35
825,94	-200,09
826,11	-167,11
826,29	-196,40
826,46	-186,57
826,64	-199,88
826,81	-231,22
826,99	-202,95
827,16	-177,15
827,34	-186,98
827,51	-171,82
827,69	-214,63
827,86	-166,91
828,04	-182,88
828,21	-131,27
828,39	-200,91
828,56	-170,60
828,74	-188,82
828,91	-192,92
829,09	-185,75
829,26	-183,91
829,43	-186,16
829,61	-143,56
829,78	-126,36
829,96	-144,79
830,13	-156,26
830,31	-177,56
830,48	-170,80
830,66	-186,57
830,83	-167,32
831,01	-130,66
831,18	-157,49
831,35	-195,79
831,53	-210,33
831,70	-178,58
831,88	-194,97
832,05	-174,08
832,23	-157,49
832,40	-193,74
832,57	-198,86
832,75	-155,85
832,92	-167,93
833,10	-182,68
833,27	-178,99
833,45	-156,06
833,62	-168,75
833,79	-143,36
833,97	-148,48
834,14	-194,15
834,32	-175,10
834,49	-151,34
834,66	-187,18
834,84	-126,97
835,01	-121,65
835,19	-158,51
835,36	-154,01
835,53	-191,28
835,71	-137,01
835,88	-163,43
836,06	-171,62
836,23	-176,74
836,40	-167,11
836,58	-177,35
836,75	-165,48
836,93	-166,70
837,10	-139,88
837,27	-172,03
837,45	-168,55
837,62	-143,77
837,79	-139,67
837,97	-183,09
838,14	-199,68
838,32	-180,02
838,49	-174,49
838,66	-182,68
838,84	-171,21
839,01	-138,85
839,18	-155,85
839,36	-160,15
839,53	-172,23
839,70	-194,15
839,88	-175,92
840,05	-201,93
840,23	-173,26
840,40	-154,21
840,57	-169,37
840,75	-167,52
840,92	-141,11
841,09	-175,10
841,27	-169,16
841,44	-180,22
841,61	-181,86
841,79	-179,40
841,96	-186,16
842,13	-133,94
842,31	-151,34
842,48	-149,30
842,65	-165,89
842,83	-173,67
843,00	-146,43
843,17	-173,46
843,35	-163,22
843,52	-156,87
843,69	-169,57
843,86	-157,90
844,04	-138,85
844,21	-143,77
844,38	-192,51
844,56	-182,06
844,73	-165,07
844,90	-189,03
845,08	-178,99
845,25	-168,75
845,42	-147,04
845,60	-133,73
845,77	-139,88
845,94	-149,09
846,11	-166,91
846,29	-176,94
846,46	-161,18
846,63	-167,73
846,81	-166,09
846,98	-165,48
847,15	-135,58
847,32	-149,71
847,50	-142,95
847,67	-153,60
847,84	-138,24
848,01	-171,41
848,19	-141,92
848,36	-156,87
848,53	-168,96
848,71	-155,03
848,88	-134,35
849,05	-138,24
849,22	-159,13
849,40	-135,37
849,57	-139,47
849,74	-171,21
849,91	-139,26
850,09	-105,47
850,26	-140,08
850,43	-133,12
850,60	-126,15
850,78	-158,31
850,95	-102,81
851,12	-165,07
851,29	-127,38
851,47	-154,01
851,64	-155,03
851,81	-138,03
851,98	-135,58
852,15	-145,82
852,33	-136,19
852,50	-140,90
852,67	-137,21
852,84	-121,03
853,02	-118,99
853,19	-175,10
853,36	-114,28
853,53	-153,19
853,70	-142,95
853,88	-102,60
854,05	-152,57
854,22	-154,21
854,39	-123,29
854,56	-135,37
854,74	-97,07
854,91	-140,08
855,08	-128,20
855,25	-127,18
855,42	-144,59
855,60	-157,28
855,77	-108,34
855,94	-120,83
856,11	-118,17
856,28	-111,20
856,46	-160,56
856,63	-150,94
856,80	-111,41
856,97	-171,41
857,14	-131,68
857,31	-78,64
857,49	-149,50
857,66	-117,14
857,83	-153,60
858,00	-159,74
858,17	-132,91
858,34	-140,70
858,52	-127,38
858,69	-166,50
858,86	-161,38
859,03	-176,13
859,20	-123,49
859,37	-142,74
859,55	-148,48
859,72	-143,15
859,89	-157,08
860,06	-108,95
860,23	-143,36
860,40	-109,77
860,57	-131,68
860,75	-103,22
860,92	-147,04
861,09	-126,77
861,26	-129,43
861,43	-123,90
861,60	-97,28
861,77	-130,05
861,95	-88,88
862,12	-104,04
862,29	-123,29
862,46	-94,82
862,63	-133,94
862,80	-137,83
862,97	-123,08
863,14	-122,88
863,31	-148,68
863,49	-109,77
863,66	-114,07
863,83	-123,08
864,00	-141,31
864,17	-108,54
864,34	-122,26
864,51	-135,17
864,68	-101,37
864,85	-161,99
865,02	-170,80
865,20	-117,96
865,37	-118,37
865,54	-117,14
865,71	-130,66
865,88	-101,58
866,05	-107,11
866,22	-111,82
866,39	-139,67
866,56	-136,19
866,73	-113,25
866,90	-123,70
867,07	-124,52
867,25	-86,63
867,42	-115,51
867,59	-94,00
867,76	-70,65
867,93	-137,01
868,10	-82,53
868,27	-158,72
868,44	-138,24
868,61	-134,96
868,78	-98,10
868,95	-97,48
869,12	-146,22
869,29	-112,23
869,46	-111,61
869,63	-96,66
869,80	-138,44
869,97	-123,70
870,14	-73,93
870,32	-75,16
870,49	-147,25
870,66	-113,25
870,83	-81,10
871,00	-95,23
871,17	-108,54
871,34	-128,61
871,51	-102,40
871,68	-132,30
871,85	-104,65
872,02	-107,72
872,19	-108,75
872,36	-152,16
872,53	-147,45
872,70	-128,00
872,87	-109,36
873,04	-101,17
873,21	-108,13
873,38	-98,30
873,55	-111,82
873,72	-97,69
873,89	-92,98
874,06	-104,24
874,23	-98,51
874,40	-96,66
874,57	-125,95
874,74	-116,32
874,91	-101,37
875,08	-129,43
875,25	-74,55
875,42	-155,03
875,59	-104,86
875,76	-102,19
875,93	-68,20
876,10	-86,83
876,27	-86,83
876,44	-107,93
876,61	-130,05
876,78	-119,60
876,95	-83,56
877,12	-97,48
877,29	-113,66
877,46	-85,61
877,62	-112,23
877,79	-104,04
877,96	-128,61
878,13	-93,39
878,30	-101,17
878,47	-85,81
878,64	-96,25
878,81	-88,88
878,98	-109,57
879,15	-111,82
879,32	-111,20
879,49	-75,77
879,66	-118,37
879,83	-109,57
880,00	-88,68
880,17	-54,68
880,34	-87,86
880,51	-88,88
880,67	-82,12
880,84	-58,78
881,01	-79,87
881,18	-89,70
881,35	-118,99
881,52	-99,74
881,69	-76,80
881,86	-101,37
882,03	-114,28
882,20	-84,58
882,37	-105,68
882,54	-72,50
882,70	-88,27
882,87	-105,27
883,04	-92,36
883,21	-113,46
883,38	-62,87
883,55	-137,83
883,72	-73,11
883,89	-128,41
884,06	-71,68
884,23	-119,81
884,39	-118,58
884,56	-100,35
884,73	-111,82
884,90	-121,44
885,07	-125,54
885,24	-112,02
885,41	-82,94
885,58	-85,20
885,74	-89,50
885,91	-105,47
886,08	-82,33
886,25	-114,69
886,42	-113,46
886,59	-108,75
886,76	-58,78
886,93	-75,16
887,09	-90,32
887,26	-88,88
887,43	-71,06
887,60	-105,06
887,77	-118,99
887,94	-65,94
888,10	-78,23
888,27	-69,84
888,44	-52,63
888,61	-91,75
888,78	-81,92
888,95	-73,73
889,12	-111,82
889,28	-80,49
889,45	-68,81
889,62	-86,01
889,79	-74,75
889,96	-80,08
890,13	-62,05
890,29	-91,95
890,46	-83,35
890,63	-104,45
890,80	-73,11
890,97	-87,86
891,13	-74,55
891,30	-50,58
891,47	-77,00
891,64	-63,08
891,81	-96,25
891,98	-58,37
892,14	-85,81
892,31	-91,54
892,48	-96,25
892,65	-69,63
892,82	-103,83
892,98	-107,31
893,15	-76,39
893,32	-88,06
>>>>>End Processed Spectral Data<<<<<