SpectraSuite Datei
++++++++++++++++++++++++++++++++++++
Datum: Mon Mar 05 09:58:08 CET 2018
Benutzer: Admin
Dark-Spektrum vorhanden: Ja
Referenz-Spektrum vorhanden: Nein
Zahl der probierten Teilspektren: 1
Spektrometer: USB4F05832
Integrationszeit (usec): 200000 (USB4F05832)
Spektren Durchschnitt berechnet: 10 (USB4F05832)
Boxcar Glâ€°ttung: 0 (USB4F05832)
Dunkelstromkorrektur: Nein (USB4F05832)
Puls/Lampe aktiviert: Nein (USB4F05832)
Correct for Detector Non-linearity: Nein (USB4F05832)
Streulichtkorrektur: Nein (USB4F05832)
Anzahl Pixel in verarbeitetem Spektrum: 3648
>>>>>Begin Processed Spectral Data<<<<<
177,54	-9,42
177,75	-9,42
177,97	-9,42
178,19	-18,64
178,41	32,97
178,63	-13,52
178,85	15,36
179,07	5,12
179,29	-4,30
179,51	11,67
179,73	23,14
179,95	-22,32
180,17	-4,30
180,39	-2,05
180,61	-12,08
180,83	0,61
181,05	39,94
181,27	-2,05
181,49	-4,71
181,71	35,84
181,92	36,45
182,14	25,39
182,36	11,47
182,58	-39,12
182,80	-0,20
183,02	26,62
183,24	-10,65
183,46	1,23
183,68	18,43
183,90	9,22
184,12	59,19
184,34	3,07
184,56	-16,59
184,78	-32,15
185,00	30,31
185,21	-15,36
185,43	10,04
185,65	27,03
185,87	-20,68
186,09	-14,95
186,31	-21,50
186,53	26,62
186,75	13,52
186,97	32,56
187,19	18,43
187,41	8,19
187,63	-12,90
187,84	-3,69
188,06	-16,59
188,28	18,02
188,50	32,97
188,72	12,49
188,94	26,62
189,16	-1,23
189,38	6,96
189,60	31,95
189,82	-15,77
190,03	-18,23
190,25	15,97
190,47	17,82
190,69	1,02
190,91	11,88
191,13	7,99
191,35	5,32
191,57	13,52
191,79	15,97
192,01	31,54
192,22	-23,76
192,44	9,01
192,66	45,67
192,88	2,87
193,10	30,51
193,32	3,48
193,54	18,64
193,76	26,01
193,98	36,04
194,19	-13,31
194,41	-28,06
194,63	-9,63
194,85	-11,88
195,07	10,44
195,29	12,49
195,51	5,94
195,73	22,32
195,94	14,54
196,16	12,29
196,38	-9,83
196,60	-14,75
196,82	9,83
197,04	-5,94
197,26	-7,17
197,48	23,96
197,69	0,82
197,91	-24,78
198,13	7,99
198,35	4,71
198,57	26,62
198,79	-5,53
199,01	27,03
199,22	19,05
199,44	10,04
199,66	-14,75
199,88	-1,43
200,10	1,23
200,32	17,00
200,54	23,55
200,75	-17,00
200,97	16,18
201,19	-8,60
201,41	-39,32
201,63	16,59
201,85	6,76
202,06	9,63
202,28	7,17
202,50	10,65
202,72	7,37
202,94	-7,58
203,16	1,43
203,38	-2,87
203,59	15,97
203,81	6,55
204,03	7,58
204,25	15,97
204,47	15,77
204,69	6,55
204,90	0,20
205,12	12,29
205,34	-9,63
205,56	-1,64
205,78	22,53
206,00	-13,72
206,21	0,01
206,43	5,32
206,65	15,36
206,87	-22,53
207,09	30,31
207,30	-12,08
207,52	26,21
207,74	14,13
207,96	-7,78
208,18	2,87
208,40	-9,01
208,61	20,27
208,83	36,25
209,05	0,82
209,27	22,53
209,49	45,26
209,70	24,99
209,92	32,15
210,14	-12,49
210,36	41,37
210,58	-3,28
210,79	-3,28
211,01	44,85
211,23	12,49
211,45	15,97
211,67	1,84
211,88	41,57
212,10	1,43
212,32	13,93
212,54	26,83
212,76	2,66
212,97	10,85
213,19	24,99
213,41	0,20
213,63	32,97
213,85	-2,46
214,06	19,46
214,28	12,29
214,50	-19,25
214,72	28,06
214,94	11,06
215,15	48,74
215,37	3,07
215,59	47,72
215,81	-14,34
216,02	20,27
216,24	18,64
216,46	7,99
216,68	-2,66
216,90	17,20
217,11	-14,75
217,33	11,67
217,55	4,10
217,77	-10,65
217,98	6,35
218,20	27,65
218,42	-4,30
218,64	-4,71
218,85	6,35
219,07	20,89
219,29	40,75
219,51	12,49
219,73	4,71
219,94	22,53
220,16	-8,19
220,38	-2,05
220,60	-2,25
220,81	23,96
221,03	-17,41
221,25	42,80
221,47	1,84
221,68	-26,01
221,90	-0,41
222,12	-5,32
222,34	-2,66
222,55	1,43
222,77	15,15
222,99	16,38
223,21	18,23
223,42	26,83
223,64	12,29
223,86	13,11
224,08	-6,55
224,29	38,30
224,51	45,06
224,73	14,54
224,94	-29,70
225,16	2,25
225,38	11,88
225,60	-6,14
225,81	-15,36
226,03	10,65
226,25	15,36
226,47	-2,46
226,68	-2,25
226,90	27,03
227,12	9,83
227,33	24,78
227,55	13,72
227,77	28,88
227,99	-9,22
228,20	13,93
228,42	1,23
228,64	14,34
228,86	40,75
229,07	5,12
229,29	27,24
229,51	37,68
229,72	3,07
229,94	-9,83
230,16	26,62
230,38	1,64
230,59	-16,79
230,81	-5,94
231,03	34,82
231,24	18,23
231,46	9,42
231,68	23,76
231,89	-26,21
232,11	-5,73
232,33	35,63
232,55	3,89
232,76	-10,24
232,98	16,38
233,20	40,75
233,41	18,43
233,63	0,01
233,85	40,34
234,06	21,91
234,28	4,92
234,50	32,56
234,71	7,37
234,93	-0,82
235,15	-3,28
235,37	21,09
235,58	31,95
235,80	3,07
236,02	2,87
236,23	-7,17
236,45	51,61
236,67	32,56
236,88	18,64
237,10	-18,84
237,32	7,78
237,53	8,19
237,75	-6,55
237,97	-11,47
238,18	64,51
238,40	18,64
238,62	19,25
238,83	24,37
239,05	43,83
239,27	12,70
239,48	47,31
239,70	20,07
239,92	4,51
240,13	1,64
240,35	6,55
240,57	20,68
240,78	21,09
241,00	-0,82
241,22	-20,07
241,43	-1,02
241,65	47,51
241,87	-1,84
242,08	27,65
242,30	18,02
242,52	41,57
242,73	4,92
242,95	7,78
243,16	20,07
243,38	7,99
243,60	-12,70
243,81	10,65
244,03	41,98
244,25	4,51
244,46	17,61
244,68	-4,30
244,90	31,13
245,11	20,89
245,33	15,15
245,55	-5,73
245,76	13,11
245,98	29,08
246,19	10,85
246,41	-23,35
246,63	-14,34
246,84	22,53
247,06	19,05
247,28	41,16
247,49	28,26
247,71	2,25
247,92	20,27
248,14	-6,55
248,36	28,88
248,57	30,51
248,79	22,12
249,01	6,35
249,22	-0,41
249,44	23,96
249,65	49,36
249,87	10,24
250,09	20,27
250,30	29,29
250,52	-3,48
250,73	8,40
250,95	17,82
251,17	43,83
251,38	15,15
251,60	21,30
251,81	7,99
252,03	2,25
252,25	22,73
252,46	-10,65
252,68	29,90
252,89	3,07
253,11	20,48
253,33	25,60
253,54	12,90
253,76	-4,30
253,97	16,59
254,19	-22,32
254,41	-17,00
254,62	10,24
254,84	37,89
255,05	-13,52
255,27	30,92
255,49	21,09
255,70	26,62
255,92	15,36
256,13	14,13
256,35	2,05
256,56	14,34
256,78	32,36
257,00	9,42
257,21	14,34
257,43	8,81
257,64	24,58
257,86	23,35
258,08	40,55
258,29	20,68
258,51	43,42
258,72	23,35
258,94	5,12
259,15	32,56
259,37	19,66
259,59	28,26
259,80	57,55
260,02	44,24
260,23	27,85
260,45	21,30
260,66	11,26
260,88	49,97
261,09	16,59
261,31	19,05
261,53	-24,99
261,74	34,82
261,96	-1,23
262,17	-3,69
262,39	26,83
262,60	33,18
262,82	17,20
263,03	25,80
263,25	5,32
263,46	11,26
263,68	5,32
263,90	-2,46
264,11	16,18
264,33	8,40
264,54	24,37
264,76	6,55
264,97	38,09
265,19	42,80
265,40	24,37
265,62	27,24
265,83	14,95
266,05	29,29
266,26	16,38
266,48	41,57
266,70	-2,46
266,91	1,23
267,13	28,47
267,34	27,85
267,56	33,38
267,77	18,23
267,99	55,70
268,20	24,99
268,42	27,24
268,63	23,55
268,85	30,11
269,06	-12,29
269,28	65,94
269,49	24,58
269,71	50,38
269,92	1,64
270,14	2,66
270,35	23,96
270,57	21,91
270,78	24,99
271,00	35,63
271,21	13,11
271,43	16,18
271,64	0,41
271,86	36,66
272,07	46,28
272,29	58,16
272,50	12,49
272,72	10,65
272,93	7,58
273,15	4,92
273,36	11,88
273,58	53,45
273,79	48,74
274,01	38,50
274,22	18,02
274,44	40,75
274,65	45,06
274,87	39,73
275,08	40,55
275,30	25,80
275,51	49,56
275,73	30,11
275,94	4,71
276,16	19,66
276,37	30,11
276,59	69,84
276,80	58,16
277,02	30,92
277,23	-2,66
277,45	49,15
277,66	30,72
277,88	-12,49
278,09	36,25
278,30	35,43
278,52	45,87
278,73	41,16
278,95	11,47
279,16	48,95
279,38	36,45
279,59	43,83
279,81	42,60
280,02	10,24
280,24	30,31
280,45	18,23
280,67	4,10
280,88	22,12
281,09	31,74
281,31	36,25
281,52	30,51
281,74	25,19
281,95	14,75
282,17	9,01
282,38	5,73
282,60	46,90
282,81	10,04
283,02	34,20
283,24	21,71
283,45	70,45
283,67	36,25
283,88	21,50
284,10	32,97
284,31	54,07
284,53	32,36
284,74	51,40
284,95	26,62
285,17	17,61
285,38	32,15
285,60	26,83
285,81	52,02
286,03	45,87
286,24	23,14
286,45	29,90
286,67	21,09
286,88	37,68
287,10	22,32
287,31	29,08
287,53	37,48
287,74	13,72
287,95	34,61
288,17	19,05
288,38	15,36
288,60	38,71
288,81	16,38
289,02	63,28
289,24	60,82
289,45	40,96
289,67	59,19
289,88	18,64
290,10	37,48
290,31	44,24
290,52	29,70
290,74	34,82
290,95	46,08
291,17	52,84
291,38	21,50
291,59	51,20
291,81	35,84
292,02	45,67
292,24	73,11
292,45	35,43
292,66	25,39
292,88	45,67
293,09	7,99
293,31	17,00
293,52	38,30
293,73	60,42
293,95	65,33
294,16	50,18
294,37	61,85
294,59	43,21
294,80	42,39
295,02	53,86
295,23	61,44
295,44	43,83
295,66	36,25
295,87	43,21
296,09	35,23
296,30	47,31
296,51	31,95
296,73	67,79
296,94	61,85
297,15	46,49
297,37	42,19
297,58	42,80
297,79	39,53
298,01	80,69
298,22	34,20
298,44	89,70
298,65	97,89
298,86	38,91
299,08	72,70
299,29	61,64
299,50	34,00
299,72	61,03
299,93	24,17
300,14	38,91
300,36	89,91
300,57	67,38
300,79	51,20
301,00	49,97
301,21	90,32
301,43	50,18
301,64	82,33
301,85	96,05
302,07	89,29
302,28	86,63
302,49	74,34
302,71	91,95
302,92	84,79
303,13	116,32
303,35	54,27
303,56	85,40
303,77	115,92
303,99	139,47
304,20	166,50
304,41	121,24
304,63	140,49
304,84	161,38
305,05	184,32
305,27	163,84
305,48	201,32
305,69	225,48
305,91	248,62
306,12	248,21
306,33	294,91
306,55	285,49
306,76	347,95
306,97	390,55
307,19	379,08
307,40	422,09
307,61	433,35
307,82	452,40
308,04	462,84
308,25	446,87
308,46	493,56
308,68	544,76
308,89	582,44
309,10	651,87
309,32	675,42
309,53	796,86
309,74	873,05
309,96	999,41
310,17	1107,54
310,38	1205,23
310,59	1195,60
310,81	1235,95
311,02	1264,01
311,23	1352,07
311,45	1395,08
311,66	1482,11
311,87	1628,14
312,09	1667,25
312,30	1700,02
312,51	1768,01
312,72	1939,43
312,94	1947,21
313,15	2016,23
313,36	2126,41
313,58	2205,46
313,79	2355,37
314,00	2436,67
314,21	2508,35
314,43	2576,55
314,64	2564,26
314,85	2537,43
315,06	2479,48
315,28	2580,85
315,49	2766,60
315,70	2951,53
315,92	3395,12
316,13	3540,12
316,34	3847,11
316,55	3886,23
316,77	3907,52
316,98	3780,96
317,19	3776,25
317,40	3773,38
317,62	3961,59
317,83	4208,99
318,04	4397,81
318,25	4535,84
318,47	4539,32
318,68	4524,17
318,89	4663,63
319,11	4757,64
319,32	5141,84
319,53	5352,57
319,74	5738,82
319,96	5729,81
320,17	5541,19
320,38	5818,07
320,59	5591,57
320,81	5533,41
321,02	5445,96
321,23	5658,54
321,44	5444,32
321,65	5350,73
321,87	5329,02
322,08	5298,50
322,29	5544,88
322,50	5719,98
322,72	6119,13
322,93	6539,98
323,14	6973,54
323,35	6934,22
323,57	7276,43
323,78	7252,68
323,99	7230,15
324,20	7213,15
324,41	7595,71
324,63	7981,75
324,84	8542,49
325,05	9148,69
325,26	9946,37
325,48	9907,66
325,69	10363,34
325,90	10446,48
326,11	10473,93
326,32	10242,71
326,54	10216,09
326,75	9814,89
326,96	9797,28
327,17	9384,82
327,39	9268,29
327,60	9681,77
327,81	9748,74
328,02	10045,70
328,23	10839,49
328,45	11496,07
328,66	11895,83
328,87	12111,69
329,08	11905,46
329,29	11771,11
329,51	11536,21
329,72	10811,23
329,93	10223,87
330,14	9805,88
330,35	9392,39
330,56	9431,92
330,78	9471,45
330,99	10131,51
331,20	10971,58
331,41	11704,55
331,62	12110,05
331,84	12888,07
332,05	12991,90
332,26	13066,66
332,47	12905,68
332,68	13096,76
332,90	12813,94
333,11	11971,81
333,32	11985,33
333,53	11793,84
333,74	11760,67
333,95	11973,24
334,17	12148,14
334,38	12122,75
334,59	12078,71
334,80	11642,50
335,01	10961,96
335,22	10715,59
335,44	10450,58
335,65	10006,17
335,86	10183,52
336,07	9929,58
336,28	10031,16
336,49	10161,82
336,71	10486,42
336,92	10840,92
337,13	11156,51
337,34	11175,77
337,55	11813,71
337,76	11743,87
337,97	11691,85
338,19	11945,19
338,40	11954,61
338,61	12160,84
338,82	12355,19
339,03	12922,48
339,24	13125,43
339,45	12704,98
339,67	12814,55
339,88	12508,99
340,09	12244,40
340,30	11698,82
340,51	11943,34
340,72	12130,32
340,93	12148,76
341,15	12483,60
341,36	12578,83
341,57	12679,18
341,78	12873,74
341,99	12663,41
342,20	12829,71
342,41	12805,95
342,62	12251,97
342,84	11509,99
343,05	11003,74
343,26	10383,20
343,47	10400,20
343,68	10373,78
343,89	10802,01
344,10	11653,35
344,31	11907,50
344,53	12116,19
344,74	12227,40
344,95	11974,06
345,16	11926,96
345,37	11973,04
345,58	12143,64
345,79	12529,47
346,00	12623,27
346,21	12452,67
346,42	12356,21
346,64	11830,91
346,85	12079,12
347,06	11779,10
347,27	12100,01
347,48	12288,43
347,69	11916,31
347,90	11963,82
348,11	12041,03
348,32	11507,13
348,53	11812,89
348,75	12526,40
348,96	12594,80
349,17	13495,29
349,38	13913,08
349,59	13857,17
349,80	14172,56
350,01	13402,52
350,22	13560,01
350,43	12935,79
350,64	13408,46
350,85	13006,85
351,06	12754,13
351,28	12581,08
351,49	12175,99
351,70	12424,00
351,91	12253,41
352,12	12906,09
352,33	12929,65
352,54	13997,05
352,75	14052,96
352,96	14212,49
353,17	14659,36
353,38	14637,65
353,59	14641,54
353,80	14881,56
354,01	14552,66
354,22	14102,11
354,44	14104,36
354,65	13678,79
354,86	13698,45
355,07	13254,86
355,28	13070,96
355,49	12505,31
355,70	11859,99
355,91	11456,13
356,12	10994,11
356,33	10987,97
356,54	10890,48
356,75	10694,90
356,96	10495,43
357,17	9806,49
357,38	9529,40
357,59	9284,06
357,80	9809,77
358,01	10883,93
358,22	11503,65
358,43	12674,47
358,64	13362,18
358,85	13809,04
359,07	13665,48
359,28	13568,00
359,49	12983,92
359,70	12365,64
359,91	12281,67
360,12	11867,77
360,33	11787,08
360,54	11899,11
360,75	11981,23
360,96	12005,19
361,17	12084,04
361,38	12749,42
361,59	13632,10
361,80	13906,73
362,01	13529,50
362,22	13385,11
362,43	13317,33
362,64	13327,77
362,85	13801,26
363,06	13657,90
363,27	13972,88
363,48	13714,84
363,69	13670,81
363,90	13610,80
364,11	14195,09
364,32	14636,01
364,53	15529,34
364,74	16101,95
364,95	16629,30
365,16	16569,71
365,37	16703,64
365,58	16419,18
365,79	16521,99
366,00	16533,66
366,21	16272,75
366,42	16001,80
366,63	15722,67
366,84	15385,77
367,05	14866,00
367,26	14632,53
367,47	14402,34
367,68	14426,10
367,89	14459,48
368,10	14246,69
368,31	14185,87
368,52	14655,67
368,73	15672,29
368,94	15633,17
369,15	15073,66
369,36	15063,01
369,57	14565,15
369,78	14454,97
369,99	15158,86
370,20	15452,54
370,40	15897,36
370,61	15951,42
370,82	15442,91
371,03	14691,10
371,24	14524,40
371,45	14323,29
371,66	14156,17
371,87	13792,25
372,08	13862,50
372,29	13128,71
372,50	12168,21
372,71	12401,27
372,92	12484,62
373,13	12405,16
373,34	12583,13
373,55	12243,37
373,76	12279,21
373,97	12427,69
374,18	13118,06
374,39	13800,65
374,60	14527,68
374,81	14681,68
375,01	14183,82
375,22	14599,97
375,43	14204,30
375,64	14828,11
375,85	14606,32
376,06	15359,97
376,27	16134,10
376,48	16777,57
376,69	16886,12
376,90	17596,15
377,11	18254,16
377,32	17335,24
377,53	17502,15
377,74	16941,41
377,94	15911,08
378,15	15489,61
378,36	14433,47
378,57	14495,73
378,78	13969,40
378,99	14677,18
379,20	15184,66
379,41	15804,99
379,62	15991,97
379,83	16253,91
380,04	16020,85
380,25	15195,93
380,45	14581,54
380,66	13664,87
380,87	12798,17
381,08	11931,47
381,29	11634,31
381,50	10695,11
381,71	10267,08
381,92	10040,99
382,13	9611,32
382,34	9174,49
382,55	9325,63
382,75	9602,52
382,96	10261,76
383,17	11157,95
383,38	12165,14
383,59	12722,39
383,80	13253,63
384,01	13615,92
384,22	13804,54
384,43	13112,73
384,63	12395,95
384,84	12631,67
385,05	12464,96
385,26	13026,11
385,47	13368,53
385,68	13526,63
385,89	13317,94
386,10	13073,82
386,30	13272,89
386,51	12625,93
386,72	13228,85
386,93	12797,14
387,14	12581,70
387,35	13122,36
387,56	12648,46
387,77	12922,89
387,97	13802,49
388,18	14630,89
388,39	15009,56
388,60	15599,99
388,81	15448,65
389,02	15832,64
389,23	15717,75
389,43	15765,88
389,64	15989,93
389,85	16015,93
390,06	16725,76
390,27	17263,76
390,48	17123,89
390,69	16729,86
390,89	16498,44
391,10	15299,35
391,31	14126,07
391,52	13143,45
391,73	11612,19
391,94	10035,46
392,14	8674,17
392,35	8143,54
392,56	8519,55
392,77	9270,74
392,98	10190,08
393,19	11573,48
393,39	12995,80
393,60	14015,07
393,81	15502,10
394,02	15677,82
394,23	16265,99
394,44	16412,83
394,64	16085,57
394,85	15689,90
395,06	13758,46
395,27	12399,43
395,48	11139,31
395,69	9573,64
395,89	9778,44
396,10	10481,91
396,31	11301,72
396,52	13367,91
396,73	14923,14
396,93	16831,03
397,14	17337,08
397,35	19279,37
397,56	19319,51
397,77	19966,88
397,97	20831,53
398,18	21582,31
398,39	20537,85
398,60	21584,36
398,81	21009,29
399,01	21792,64
399,22	21176,82
399,43	21717,07
399,64	21780,56
399,85	21497,53
400,05	21988,02
400,26	22135,06
400,47	22213,09
400,68	22610,19
400,89	22460,48
401,09	22937,45
401,30	23192,22
401,51	22421,16
401,72	22197,32
401,93	22337,60
402,13	21854,08
402,34	21666,49
402,55	21957,71
402,76	22231,32
402,96	21919,61
403,17	20920,00
403,38	21213,88
403,59	20555,05
403,80	22067,89
404,00	21204,46
404,21	20964,03
404,42	21771,96
404,63	21421,34
404,83	21260,17
405,04	19773,96
405,25	20233,52
405,46	19924,69
405,66	19723,17
405,87	20315,24
406,08	20236,80
406,29	20912,42
406,49	20248,47
406,70	20581,06
406,91	20330,19
407,12	22074,44
407,32	21336,76
407,53	22694,98
407,74	22645,00
407,95	21738,37
408,15	22261,63
408,36	21235,18
408,57	20577,58
408,78	19944,55
408,98	19410,03
409,19	18778,44
409,40	19941,28
409,61	19862,63
409,81	20621,00
410,02	21294,98
410,23	21795,51
410,44	22634,15
410,64	22388,39
410,85	21910,19
411,06	22083,86
411,26	21623,68
411,47	21692,90
411,68	21596,85
411,89	20731,79
412,09	21322,02
412,30	21217,16
412,51	20574,10
412,72	21056,19
412,92	21808,20
413,13	21340,86
413,34	21049,64
413,54	20840,95
413,75	21115,38
413,96	20930,04
414,17	20413,54
414,37	20552,19
414,58	20565,09
414,79	21067,25
414,99	21023,83
415,20	21491,18
415,41	21397,38
415,61	21353,15
415,82	21029,98
416,03	19721,73
416,24	19721,73
416,44	19809,59
416,65	20188,88
416,86	20388,55
417,06	19732,18
417,27	19531,48
417,48	19498,30
417,68	20079,10
417,89	20322,20
418,10	19612,17
418,30	19939,43
418,51	19263,81
418,72	19039,35
418,92	20030,77
419,13	18883,09
419,34	19930,22
419,55	20021,35
419,75	20542,15
419,96	20530,48
420,17	21344,34
420,37	20980,62
420,58	19898,88
420,79	19539,26
420,99	20077,67
421,20	19801,40
421,41	18970,13
421,61	18982,83
421,82	18215,04
422,03	19302,11
422,23	18952,31
422,44	19635,92
422,65	19321,36
422,85	19398,36
423,06	19411,88
423,26	19954,79
423,47	20076,44
423,68	19170,83
423,88	19591,69
424,09	18900,91
424,30	19072,12
424,50	19272,41
424,71	19346,34
424,92	19008,84
425,12	18782,54
425,33	19803,86
425,54	19712,72
425,74	19184,76
425,95	18193,74
426,15	18706,15
426,36	17604,75
426,57	18651,26
426,77	18312,94
426,98	18844,38
427,19	18444,62
427,39	18575,28
427,60	17520,58
427,81	17635,88
428,01	17299,81
428,22	17928,33
428,42	16045,43
428,63	16047,88
428,84	15151,28
429,04	14197,34
429,25	13722,62
429,45	13224,35
429,66	13680,02
429,87	14453,13
430,07	15163,98
430,28	16491,68
430,49	17558,67
430,69	18756,12
430,90	18685,26
431,10	18375,19
431,31	18200,30
431,52	18939,00
431,72	18542,51
431,93	18699,59
432,13	19199,91
432,34	19390,99
432,55	17580,79
432,75	18199,68
432,96	17924,85
433,16	17604,95
433,37	18469,40
433,58	19260,53
433,78	19255,21
433,99	18110,19
434,19	19447,10
434,40	19510,79
434,60	20173,52
434,81	20325,89
435,02	20156,52
435,22	20517,37
435,43	20232,91
435,63	20153,45
435,84	20292,91
436,05	20105,32
436,25	18548,86
436,46	19652,72
436,66	19057,37
436,87	18330,14
437,07	17329,30
437,28	17224,03
437,48	17746,47
437,69	17400,36
437,90	17907,64
438,10	18334,44
438,31	18377,65
438,51	19510,18
438,72	18692,43
438,92	18602,31
439,13	18543,54
439,34	18329,53
439,54	18640,61
439,75	18476,77
439,95	18584,70
440,16	18949,85
440,36	19139,50
440,57	18720,89
440,77	19317,47
440,98	18925,07
441,18	18522,44
441,39	18409,60
441,60	19136,02
441,80	18496,02
442,01	17701,21
442,21	18418,41
442,42	17656,36
442,62	18286,93
442,83	18298,19
443,03	18824,52
443,24	18860,56
443,44	18891,49
443,65	19192,33
443,85	18917,29
444,06	18948,42
444,26	18636,72
444,47	18133,94
444,67	18582,86
444,88	18281,60
445,09	18069,23
445,29	18621,57
445,50	18695,70
445,70	18560,13
445,91	19159,77
446,11	18921,39
446,32	19634,29
446,52	19564,66
446,73	19404,09
446,93	19485,19
447,14	19247,83
447,34	19496,46
447,55	18781,51
447,75	19375,83
447,96	19602,13
448,16	18958,66
448,37	19224,08
448,57	19115,33
448,78	19617,29
448,98	19614,42
449,19	19780,92
449,39	20354,97
449,60	19958,07
449,80	20517,98
450,01	20283,08
450,21	20007,63
450,42	20046,34
450,62	19617,49
450,83	19331,60
451,03	19009,66
451,23	18799,74
451,44	18435,61
451,64	18520,81
451,85	17785,79
452,05	18296,35
452,26	18125,34
452,46	18520,60
452,67	18356,35
452,87	18495,21
453,08	18747,31
453,28	17979,12
453,49	18949,85
453,69	18013,11
453,90	18505,24
454,10	18720,28
454,31	18694,88
454,51	18556,85
454,71	18965,42
454,92	18806,50
455,12	18705,53
455,33	19371,53
455,53	19435,43
455,74	20143,41
455,94	20033,64
456,15	20522,49
456,35	20839,93
456,55	20055,96
456,76	20302,74
456,96	21245,42
457,17	19552,98
457,37	21394,52
457,58	20233,52
457,78	21140,77
457,99	20770,09
458,19	19334,87
458,39	20506,72
458,60	21109,23
458,80	20649,87
459,01	20232,50
459,21	20237,41
459,42	21195,04
459,62	20101,02
459,82	22019,96
460,03	21207,33
460,23	21459,44
460,44	21396,36
460,64	19978,96
460,85	22307,70
461,05	20753,09
461,25	20734,05
461,46	22287,02
461,66	21897,09
461,87	21040,22
462,07	21340,24
462,27	20126,62
462,48	20085,25
462,68	20747,56
462,89	20402,48
463,09	19945,58
463,29	20375,04
463,50	19991,25
463,70	20472,93
463,91	19940,46
464,11	19772,73
464,31	20441,19
464,52	20585,16
464,72	21315,05
464,93	20479,28
465,13	20994,34
465,33	19782,56
465,54	19483,97
465,74	19128,44
465,95	20073,17
466,15	20223,49
466,35	20711,52
466,56	20390,19
466,76	20630,21
466,96	20470,27
467,17	20641,27
467,37	20625,91
467,58	20755,55
467,78	20803,68
467,98	21156,34
468,19	20361,11
468,39	21121,11
468,59	21022,40
468,80	20439,34
469,00	20044,70
469,21	20046,95
469,41	20235,77
469,61	20821,29
469,82	20252,16
470,02	21104,11
470,22	21753,93
470,43	21965,28
470,63	21666,49
470,83	23215,57
471,04	22384,50
471,24	22656,27
471,45	21964,67
471,65	22193,22
471,85	21681,85
472,06	22424,64
472,26	22096,35
472,46	22515,16
472,67	22625,75
472,87	22762,15
473,07	22790,82
473,28	22867,21
473,48	23423,03
473,68	23233,80
473,89	23353,81
474,09	23605,71
474,29	22968,58
474,50	23439,62
474,70	23090,23
474,90	23263,49
475,11	23289,09
475,31	22978,62
475,51	23137,95
475,72	23405,62
475,92	23519,69
476,12	23783,47
476,33	24403,39
476,53	24548,59
476,73	24816,06
476,93	24962,90
477,14	24605,73
477,34	24350,35
477,54	24715,50
477,75	24875,04
477,95	24639,93
478,15	24945,08
478,36	25426,76
478,56	25419,18
478,76	25640,98
478,97	25809,73
479,17	25329,89
479,37	25399,73
479,57	25507,04
479,78	25477,14
479,98	25633,40
480,18	26074,94
480,39	26221,99
480,59	26615,20
480,79	26374,56
480,99	26198,03
481,20	26460,99
481,40	25985,65
481,60	26064,91
481,81	26017,80
482,01	26107,10
482,21	26026,41
482,41	25977,46
482,62	25942,44
482,82	25869,74
483,02	26357,36
483,23	26035,42
483,43	26395,25
483,63	25920,73
483,83	25963,12
484,04	25872,60
484,24	24702,39
484,44	24032,09
484,64	22838,95
484,85	22172,95
485,05	22117,86
485,25	22553,46
485,45	22678,39
485,66	23563,72
485,86	23913,11
486,06	24152,51
486,26	24637,47
486,47	25223,40
486,67	25713,89
486,87	25974,18
487,07	25830,42
487,28	25403,82
487,48	25327,43
487,68	25692,38
487,88	25580,97
488,09	26017,19
488,29	26387,26
488,49	27115,52
488,69	27176,75
488,90	27557,26
489,10	27170,20
489,30	26942,67
489,50	26984,24
489,71	26782,52
489,91	26945,33
490,11	26565,43
490,31	26349,99
490,52	25831,64
490,72	25450,52
490,92	25512,37
491,12	25501,10
491,32	25837,38
491,53	26364,32
491,73	26575,88
491,93	26833,51
492,13	26714,11
492,33	26258,85
492,54	26104,02
492,74	26481,67
492,94	26385,41
493,14	26933,86
493,35	27160,37
493,55	27278,53
493,75	27406,12
493,95	27210,95
494,15	26714,52
494,36	26881,43
494,56	26383,57
494,76	26438,25
494,96	26705,72
495,16	26771,66
495,37	26799,51
495,57	26789,89
495,77	26634,24
495,97	26702,85
496,17	27118,38
496,37	26459,35
496,58	26405,08
496,78	25479,19
496,98	25543,09
497,18	25053,42
497,38	25032,53
497,59	25415,29
497,79	25530,18
497,99	25708,36
498,19	25797,03
498,39	25489,02
498,59	25601,86
498,80	24993,00
499,00	24679,25
499,20	24465,03
499,40	24070,60
499,60	24170,13
499,80	23866,00
500,01	23738,42
500,21	23531,57
500,41	23376,95
500,61	23500,85
500,81	23279,06
501,01	23431,22
501,22	23536,90
501,42	23779,99
501,62	23549,18
501,82	23807,02
502,02	23798,22
502,22	23460,71
502,42	23213,11
502,63	22890,97
502,83	22611,21
503,03	22588,07
503,23	22760,51
503,43	22870,28
503,63	22844,48
503,83	23001,56
504,04	22874,38
504,24	23266,56
504,44	23133,24
504,64	23518,46
504,84	23274,76
505,04	23025,93
505,24	23046,82
505,44	22600,56
505,65	22349,28
505,85	22166,19
506,05	21934,15
506,25	21694,75
506,45	21388,58
506,65	21231,91
506,85	21099,20
507,05	21133,60
507,26	21121,73
507,46	21455,54
507,66	21879,88
507,86	22033,69
508,06	22278,42
508,26	22041,47
508,46	21849,16
508,66	21859,61
508,86	21858,58
509,06	21913,68
509,27	21779,12
509,47	21840,97
509,67	22028,16
509,87	21942,55
510,07	22294,19
510,27	22600,97
510,47	22618,18
510,67	22512,50
510,87	22392,08
511,07	22123,80
511,28	21851,21
511,48	21507,56
511,68	21604,84
511,88	21686,97
512,08	21662,59
512,28	21563,88
512,48	21333,90
512,68	21165,35
512,88	21078,92
513,08	21191,77
513,28	21285,15
513,48	21245,63
513,68	21510,23
513,89	21360,11
514,09	21378,13
514,29	21829,50
514,49	21716,25
514,69	21680,00
514,89	21412,33
515,09	20978,57
515,29	20178,84
515,49	19337,33
515,69	18690,17
515,89	18629,35
516,09	18962,55
516,29	19373,58
516,49	19745,49
516,69	19965,44
516,89	19716,82
517,09	19492,98
517,29	19472,50
517,50	19566,50
517,70	19950,90
517,90	20345,96
518,10	20448,15
518,30	20960,76
518,50	20827,02
518,70	21293,55
518,90	21648,87
519,10	21544,22
519,30	21473,57
519,50	21407,83
519,70	21477,87
519,90	21493,84
520,10	21872,10
520,30	21771,14
520,50	21863,09
520,70	21985,15
520,90	21746,56
521,10	21572,69
521,30	21413,97
521,50	21499,78
521,70	21239,89
521,90	21220,44
522,10	21481,96
522,30	21429,74
522,50	21883,16
522,70	22014,03
522,90	22371,81
523,10	22284,56
523,30	22434,47
523,50	22130,35
523,70	22164,55
523,90	22004,40
524,10	22041,47
524,30	21940,30
524,50	22014,03
524,70	21686,97
524,90	21211,02
525,10	20755,96
525,30	20051,66
525,50	19799,35
525,70	19615,85
525,90	19467,38
526,10	19686,51
526,30	20187,65
526,50	20572,87
526,70	20787,91
526,90	20881,29
527,10	20928,81
527,30	21144,66
527,50	21693,11
527,70	21837,29
527,90	21818,04
528,10	21736,53
528,30	21617,33
528,50	21384,07
528,70	21136,06
528,90	21230,47
529,10	21269,18
529,30	21313,01
529,50	21613,24
529,70	21563,68
529,90	21811,48
530,10	21741,85
530,29	21399,02
530,49	21464,15
530,69	21247,47
530,89	21139,95
531,09	20545,43
531,29	19994,52
531,49	19879,22
531,69	19698,39
531,89	19895,61
532,09	20289,43
532,29	20130,30
532,49	20308,07
532,69	20297,01
532,89	20298,85
533,09	20198,09
533,29	20322,20
533,49	20203,01
533,68	20176,59
533,88	20661,34
534,08	20609,32
534,28	20675,06
534,48	20841,77
534,68	20804,09
534,88	20487,47
535,08	20452,86
535,28	20095,08
535,48	19864,48
535,68	19552,98
535,88	19570,59
536,08	19545,40
536,27	19710,06
536,47	19714,36
536,67	20100,20
536,87	19922,23
537,07	19726,65
537,27	19814,71
537,47	19780,72
537,67	19453,66
537,87	19442,39
538,07	19518,99
538,27	18975,45
538,46	18992,25
538,66	18730,93
538,86	18459,57
539,06	18501,55
539,26	18235,73
539,46	18108,96
539,66	18051,21
539,86	18145,82
540,06	18445,85
540,25	18300,24
540,45	18561,76
540,65	18608,46
540,85	18629,35
541,05	18619,11
541,25	18450,15
541,45	18383,59
541,65	18226,10
541,85	18215,45
542,04	18049,77
542,24	18080,08
542,44	18274,23
542,64	18312,94
542,84	18427,62
543,04	18360,24
543,24	18240,03
543,43	18276,07
543,63	18170,19
543,83	18088,89
544,03	17974,41
544,23	17969,70
544,43	18039,94
544,63	17800,53
544,82	18013,52
545,02	17762,03
545,22	17802,58
545,42	17543,31
545,62	17805,04
545,82	17681,96
546,02	17556,42
546,21	17354,08
546,41	17101,97
546,61	16988,92
546,81	17102,38
547,01	16913,15
547,21	17091,53
547,40	17107,30
547,60	17159,52
547,80	17061,63
548,00	17198,23
548,20	17159,52
548,40	17053,23
548,59	17105,04
548,79	16970,29
548,99	16904,55
549,19	16754,64
549,39	16609,64
549,59	16672,92
549,78	16360,61
549,98	16638,31
550,18	16386,82
550,38	16524,24
550,58	16484,51
550,77	16597,35
550,97	16627,87
551,17	16257,19
551,37	16370,44
551,57	16203,53
551,76	15953,47
551,96	15948,15
552,16	15856,81
552,36	16119,15
552,56	15989,72
552,75	16012,25
552,95	16073,07
553,15	16133,08
553,35	15938,11
553,55	15790,04
553,74	16079,22
553,94	15860,90
554,14	15744,58
554,34	15687,44
554,54	15690,72
554,73	15653,44
554,93	15502,10
555,13	15456,63
555,33	15124,45
555,53	15164,39
555,72	14944,44
555,92	14926,83
556,12	14886,48
556,32	14821,15
556,51	14843,06
556,71	14991,75
556,91	14830,16
557,11	14727,97
557,30	14591,78
557,50	14346,23
557,70	14052,14
557,90	14204,30
558,10	14164,16
558,29	14112,14
558,49	14154,13
558,69	13936,43
558,89	13985,37
559,08	14073,64
559,28	14197,13
559,48	14248,54
559,68	14360,77
559,87	14390,87
560,07	14286,63
560,27	14136,51
560,47	13940,93
560,66	13897,72
560,86	13796,35
561,06	13731,22
561,25	13840,79
561,45	13898,34
561,65	13908,57
561,85	13834,85
562,04	13924,96
562,24	13905,91
562,44	13807,20
562,64	13561,85
562,83	13557,14
563,03	13553,66
563,23	13551,82
563,42	13567,18
563,62	13642,95
563,82	13480,96
564,02	13492,84
564,21	13291,52
564,41	13156,36
564,61	13061,54
564,80	13020,99
565,00	12887,87
565,20	12913,88
565,40	12990,47
565,59	13045,56
565,79	13142,84
565,99	13218,41
566,18	13160,25
566,38	13049,04
566,58	13018,12
566,78	13018,73
566,97	12879,06
567,17	12815,78
567,37	12684,30
567,56	12629,21
567,76	12576,37
567,96	12625,32
568,15	12557,33
568,35	12647,44
568,55	12614,46
568,74	12542,38
568,94	12436,50
569,14	12375,47
569,33	12198,52
569,53	12014,41
569,73	12003,96
569,92	11879,04
570,12	11825,38
570,32	11942,73
570,52	11924,71
570,71	12158,18
570,91	12114,55
571,11	12343,31
571,30	12223,92
571,50	12308,91
571,70	12314,85
571,89	12189,10
572,09	12211,63
572,28	12270,61
572,48	12229,85
572,68	12164,32
572,87	12249,31
573,07	12225,55
573,27	11963,21
573,46	11959,32
573,66	11950,72
573,86	11864,50
574,05	11839,92
574,25	11625,91
574,45	11574,30
574,64	11607,27
574,84	11612,80
575,04	11598,06
575,23	11675,88
575,43	11766,40
575,62	11709,47
575,82	11683,25
576,02	11583,93
576,21	11695,95
576,41	11595,19
576,61	11511,63
576,80	11407,19
577,00	11367,05
577,19	11239,25
577,39	11376,47
577,59	11199,11
577,78	11272,02
577,98	11382,61
578,18	11317,08
578,37	11402,89
578,57	11389,78
578,76	11454,08
578,96	11399,61
579,16	11428,48
579,35	11551,16
579,55	11415,38
579,74	11341,86
579,94	11396,54
580,14	11521,05
580,33	11470,26
580,53	11513,68
580,72	11377,49
580,92	11481,12
581,12	11453,27
581,31	11590,27
581,51	11470,67
581,70	11447,12
581,90	11511,43
582,10	11449,78
582,29	11570,41
582,49	11446,51
582,68	11405,96
582,88	11483,17
583,07	11512,45
583,27	11340,63
583,47	11360,90
583,66	11447,12
583,86	11212,83
584,05	11167,57
584,25	10982,64
584,44	10996,98
584,64	10840,10
584,84	10807,95
585,03	10802,83
585,23	10756,14
585,42	10922,84
585,62	10901,75
585,81	10909,12
586,01	10946,80
586,20	10890,28
586,40	10934,31
586,60	10688,76
586,79	10732,18
586,99	10616,47
587,18	10536,59
587,38	10370,50
587,57	9987,12
587,77	9757,14
587,96	9521,21
588,16	9343,04
588,35	9262,96
588,55	9313,14
588,75	9475,95
588,94	9683,21
589,14	9879,61
589,33	9834,35
589,53	10085,43
589,72	9945,96
589,92	10077,85
590,11	9848,68
590,31	9896,60
590,50	9914,63
590,70	9836,60
590,89	9943,91
591,09	9826,15
591,28	9794,62
591,48	9821,65
591,67	9669,28
591,87	9778,03
592,06	9636,10
592,26	9656,38
592,45	9643,48
592,65	9757,14
592,84	9565,24
593,04	9566,27
593,23	9451,17
593,43	9426,19
593,62	9371,10
593,82	9273,00
594,01	9201,52
594,21	9248,42
594,40	9219,55
594,60	9230,60
594,79	9259,28
594,99	9129,23
595,18	9220,36
595,38	9231,01
595,57	9237,98
595,77	9161,59
595,96	9085,20
596,16	8991,40
596,35	8921,16
596,55	8927,51
596,74	8874,46
596,94	8800,12
597,13	8798,28
597,33	8666,39
597,52	8661,06
597,72	8648,98
597,91	8692,19
598,11	8686,05
598,30	8582,63
598,50	8671,92
598,69	8504,80
598,88	8503,78
599,08	8485,14
599,27	8352,44
599,47	8300,01
599,66	8280,35
599,86	8241,44
600,05	8217,88
600,25	8228,53
600,44	8065,92
600,64	7984,01
600,83	8003,05
601,02	7992,20
601,22	7935,26
601,41	7835,94
601,61	7988,51
601,80	7977,66
602,00	8083,74
602,19	7938,95
602,38	7988,72
602,58	7905,57
602,77	7944,48
602,97	7840,65
603,16	7918,27
603,36	7750,95
603,55	7845,97
603,74	7719,82
603,94	7733,13
604,13	7749,10
604,33	7632,37
604,52	7591,82
604,72	7571,34
604,91	7552,70
605,10	7551,48
605,30	7378,63
605,49	7359,99
605,69	7380,26
605,88	7280,53
606,07	7462,59
606,27	7245,71
606,46	7305,51
606,66	7182,84
606,85	7126,32
607,04	7105,63
607,24	7020,44
607,43	6969,44
607,63	6915,58
607,82	6954,49
608,01	6881,58
608,21	6841,65
608,40	6841,65
608,60	6742,53
608,79	6720,41
608,98	6635,62
609,18	6611,66
609,37	6550,84
609,57	6491,24
609,76	6550,02
609,95	6573,57
610,15	6639,51
610,34	6534,45
610,53	6541,21
610,73	6478,34
610,92	6381,06
611,11	6340,51
611,31	6370,21
611,50	6268,63
611,70	6315,32
611,89	6352,80
612,08	6240,16
612,28	6194,29
612,47	6188,96
612,66	6180,77
612,86	6079,19
613,05	6135,71
613,24	6139,81
613,44	6135,71
613,63	6188,55
613,82	6197,36
614,02	6178,11
614,21	6116,46
614,41	6155,17
614,60	6021,23
614,79	5974,54
614,99	5887,71
615,18	5848,38
615,37	5824,42
615,57	5960,41
615,76	5916,17
615,95	5880,13
616,15	5909,62
616,34	6027,58
616,53	6089,43
616,73	6200,63
616,92	6091,68
617,11	6182,82
617,30	6156,60
617,50	6153,94
617,69	6082,88
617,88	6123,43
618,08	5948,12
618,27	6132,64
618,46	6126,91
618,66	6140,02
618,85	6151,89
619,04	6122,20
619,24	6165,00
619,43	6166,64
619,62	6210,67
619,82	6196,74
620,01	6104,99
620,20	6174,83
620,39	6058,92
620,59	6015,70
620,78	6067,72
620,97	6063,83
621,17	6083,70
621,36	6164,80
621,55	6102,95
621,74	6012,84
621,94	5894,46
622,13	6000,75
622,32	5939,52
622,52	5896,31
622,71	5877,06
622,90	5951,40
623,09	5876,85
623,29	5780,80
623,48	5807,22
623,67	5846,34
623,86	5739,84
624,06	5732,06
624,25	5802,31
624,44	5667,34
624,64	5628,43
624,83	5746,19
625,02	5605,90
625,21	5682,91
625,41	5802,31
625,60	5707,48
625,79	5722,02
625,98	5668,57
626,18	5783,67
626,37	5558,39
626,56	5493,27
626,75	5430,19
626,95	5287,86
627,14	5345,61
627,33	5441,04
627,52	5480,77
627,72	5435,92
627,91	5398,86
628,10	5545,28
628,29	5457,02
628,49	5381,65
628,68	5311,61
628,87	5249,56
629,06	5324,31
629,25	5312,02
629,45	5198,15
629,64	5383,70
629,83	5381,45
630,02	5341,51
630,22	5273,93
630,41	5215,56
630,60	5209,21
630,79	5217,41
630,98	5129,34
631,18	5173,17
631,37	5210,85
631,56	5277,82
631,75	5304,24
631,94	5236,45
632,14	5174,81
632,33	5126,48
632,52	5122,17
632,71	5024,08
632,90	5061,55
633,10	5028,99
633,29	5054,18
633,48	4964,07
633,67	5080,81
633,86	5077,73
634,06	5142,24
634,25	5026,74
634,44	5047,01
634,63	4968,17
634,82	4972,47
635,02	4867,41
635,21	4989,88
635,40	4924,96
635,59	4989,88
635,78	4928,03
635,97	4937,86
636,17	4874,58
636,36	4992,95
636,55	4921,47
636,74	4995,41
636,93	4840,78
637,12	4847,54
637,32	4903,86
637,51	4848,36
637,70	4822,76
637,89	4825,22
638,08	4737,16
638,27	4745,55
638,47	4663,22
638,66	4713,20
638,85	4599,53
639,04	4668,96
639,23	4555,30
639,42	4589,29
639,62	4592,16
639,81	4546,90
640,00	4507,17
640,19	4469,28
640,38	4498,57
640,57	4545,67
640,76	4484,44
640,95	4544,44
641,15	4525,19
641,34	4500,21
641,53	4539,73
641,72	4480,96
641,91	4438,56
642,10	4454,95
642,29	4403,95
642,49	4445,12
642,68	4373,03
642,87	4458,43
643,06	4379,38
643,25	4397,60
643,44	4344,97
643,63	4354,60
643,82	4345,79
644,01	4360,74
644,21	4267,35
644,40	4304,63
644,59	4195,47
644,78	4279,23
644,97	4173,35
645,16	4163,93
645,35	4167,82
645,54	4181,95
645,73	4081,19
645,92	4133,01
646,12	4091,64
646,31	4117,44
646,50	4080,78
646,69	4114,78
646,88	4042,90
647,07	4060,30
647,26	4026,31
647,45	4102,70
647,64	3968,14
647,83	4023,64
648,02	3928,62
648,22	3898,31
648,41	3844,45
648,60	3768,88
648,79	3781,16
648,98	3843,01
649,17	3785,88
649,36	3910,60
649,55	3965,89
649,74	3932,71
649,93	3929,44
650,12	3929,23
650,31	3862,26
650,50	3756,18
650,69	3775,64
650,88	3839,53
651,08	3795,91
651,27	3834,82
651,46	3783,21
651,65	3804,72
651,84	3702,73
652,03	3764,99
652,22	3728,53
652,41	3717,68
652,60	3699,25
652,79	3714,20
652,98	3674,88
653,17	3657,26
653,36	3666,48
653,55	3658,49
653,74	3587,63
653,93	3519,84
654,12	3456,36
654,31	3416,01
654,50	3354,78
654,69	3128,68
654,88	3033,86
655,07	2904,02
655,26	2829,68
655,45	2905,86
655,64	2867,36
655,83	3115,57
656,02	3198,11
656,21	3238,04
656,40	3290,68
656,59	3359,90
656,78	3365,63
656,97	3411,10
657,17	3429,12
657,36	3396,56
657,55	3357,24
657,74	3402,09
657,93	3372,19
658,12	3332,05
658,31	3285,56
658,50	3307,47
658,69	3312,18
658,87	3310,54
659,06	3262,00
659,25	3307,06
659,44	3350,89
659,63	3263,64
659,82	3286,38
660,01	3242,75
660,20	3276,34
660,39	3273,68
660,58	3242,75
660,77	3182,13
660,96	3220,02
661,15	3195,04
661,34	3258,52
661,53	3221,86
661,72	3143,63
661,91	3136,67
662,10	3174,76
662,29	3123,15
662,48	3070,11
662,67	3126,22
662,86	3051,88
663,05	3061,30
663,24	3003,14
663,43	3049,43
663,62	3119,67
663,81	3025,05
664,00	3053,32
664,19	3043,90
664,38	3028,13
664,57	3075,64
664,76	3006,01
664,94	2981,02
665,13	2919,38
665,32	2911,19
665,51	2963,41
665,70	2893,78
665,89	2903,81
666,08	2902,18
666,27	2892,35
666,46	2821,28
666,65	2812,68
666,84	2836,64
667,03	2854,25
667,22	2815,75
667,41	2850,36
667,60	2809,61
667,78	2822,72
667,97	2818,62
668,16	2783,60
668,35	2858,55
668,54	2730,56
668,73	2765,78
668,92	2776,23
669,11	2726,87
669,30	2683,86
669,49	2668,30
669,68	2616,69
669,86	2706,60
670,05	2643,52
670,24	2564,67
670,43	2599,69
670,62	2542,35
670,81	2565,49
671,00	2569,18
671,19	2557,71
671,38	2544,40
671,57	2568,97
671,75	2595,60
671,94	2555,66
672,13	2619,15
672,32	2527,40
672,51	2553,20
672,70	2492,58
672,89	2477,84
673,08	2480,50
673,26	2434,83
673,45	2426,64
673,64	2449,58
673,83	2346,15
674,02	2492,99
674,21	2442,20
674,40	2382,20
674,59	2467,39
674,77	2401,24
674,96	2414,96
675,15	2383,22
675,34	2371,14
675,53	2335,09
675,72	2316,05
675,91	2328,34
676,09	2320,14
676,28	2323,83
676,47	2257,89
676,66	2314,82
676,85	2325,26
677,04	2288,20
677,22	2255,63
677,41	2240,48
677,60	2257,27
677,79	2182,11
677,98	2206,28
678,17	2176,79
678,36	2219,79
678,54	2190,51
678,73	2147,30
678,92	2143,20
679,11	2113,50
679,30	2179,86
679,48	2099,37
679,67	2126,00
679,86	2132,35
680,05	2117,19
680,24	2119,24
680,43	2144,22
680,61	2057,39
680,80	2058,21
680,99	2068,65
681,18	2076,64
681,37	2037,32
681,55	1999,43
681,74	1993,29
681,93	2030,36
682,12	1959,70
682,31	2012,95
682,49	1979,16
682,68	1936,35
682,87	1894,78
683,06	1873,28
683,25	1879,83
683,43	1879,22
683,62	1906,66
683,81	1911,57
684,00	1884,75
684,19	1893,55
684,37	1865,29
684,56	1863,65
684,75	1849,32
684,94	1820,23
685,12	1801,39
685,31	1682,41
685,50	1497,68
685,69	1377,87
685,88	1233,29
686,06	1154,85
686,25	1123,11
686,44	1172,67
686,63	1278,34
686,81	1398,56
687,00	1466,14
687,19	1600,69
687,38	1504,44
687,56	1503,82
687,75	1560,76
687,94	1485,80
688,13	1445,66
688,31	1512,02
688,50	1469,01
688,69	1425,59
688,88	1471,88
689,06	1453,24
689,25	1476,79
689,44	1506,08
689,63	1567,52
689,81	1525,12
690,00	1549,90
690,19	1504,85
690,38	1550,52
690,56	1555,84
690,75	1530,04
690,94	1513,24
691,13	1531,88
691,31	1543,76
691,50	1532,29
691,69	1462,25
691,87	1471,67
692,06	1486,62
692,25	1533,31
692,44	1433,37
692,62	1469,01
692,81	1474,13
693,00	1445,25
693,18	1465,53
693,37	1437,67
693,56	1500,75
693,75	1442,59
693,93	1468,80
694,12	1447,71
694,31	1445,05
694,49	1410,44
694,68	1426,82
694,87	1356,16
695,05	1502,39
695,24	1433,58
695,43	1459,38
695,62	1423,75
695,80	1417,60
695,99	1472,49
696,18	1474,13
696,36	1349,61
696,55	1350,23
696,74	1369,27
696,92	1332,00
697,11	1387,29
697,30	1284,90
697,48	1294,52
697,67	1329,95
697,86	1322,58
698,04	1298,00
698,23	1330,16
698,42	1338,96
698,60	1289,81
698,79	1250,90
698,98	1291,65
699,16	1231,24
699,35	1215,67
699,54	1248,85
699,72	1253,15
699,91	1270,36
700,10	1229,19
700,28	1242,50
700,47	1195,19
700,66	1233,90
700,84	1190,89
701,03	1157,51
701,21	1214,24
701,40	1237,79
701,59	1124,74
701,77	1158,13
701,96	1246,19
702,15	1176,76
702,33	1199,50
702,52	1202,98
702,71	1227,14
702,89	1183,11
703,08	1185,57
703,26	1184,34
703,45	1216,49
703,64	1220,59
703,82	1197,86
704,01	1150,34
704,20	1126,59
704,38	1194,78
704,57	1167,34
704,75	1134,98
704,94	1165,09
705,13	1107,95
705,31	1179,02
705,50	1116,96
705,68	1160,99
705,87	1159,56
706,06	1116,14
706,24	1130,48
706,43	1060,64
706,61	1125,36
706,80	1091,36
706,99	1110,61
707,17	1097,92
707,36	1063,10
707,54	1043,03
707,73	1072,73
707,92	1011,49
708,10	1018,45
708,29	1073,95
708,47	1107,75
708,66	1031,97
708,84	1067,81
709,03	1022,76
709,22	1015,18
709,40	987,94
709,59	967,67
709,77	968,07
709,96	984,25
710,14	1021,12
710,33	995,72
710,52	1009,65
710,70	992,24
710,89	946,16
711,07	938,38
711,26	981,80
711,44	967,46
711,63	996,13
711,81	1001,46
712,00	929,98
712,19	960,29
712,37	933,05
712,56	942,07
712,74	948,62
712,93	940,63
713,11	914,01
713,30	890,46
713,48	865,06
713,67	882,06
713,85	882,88
714,04	861,38
714,22	893,12
714,41	901,52
714,59	840,69
714,78	811,20
714,97	872,64
715,15	821,65
715,34	793,38
715,52	785,60
715,71	795,23
715,89	740,34
716,08	684,43
716,26	723,14
716,45	683,20
716,63	712,08
716,82	645,72
717,00	705,93
717,19	729,49
717,37	730,31
717,56	667,84
717,74	683,20
717,93	636,92
718,11	720,07
718,30	673,37
718,48	697,33
718,67	655,15
718,85	706,75
719,04	721,91
719,22	691,39
719,41	688,32
719,59	719,25
719,78	718,84
719,96	804,85
720,15	748,53
720,33	820,21
720,52	780,48
720,70	783,35
720,88	755,09
721,07	778,64
721,25	716,17
721,44	729,08
721,62	697,13
721,81	677,47
721,99	700,61
722,18	617,87
722,36	602,31
722,55	584,70
722,73	589,20
722,92	631,18
723,10	570,97
723,28	618,90
723,47	591,04
723,65	623,61
723,84	616,03
724,02	624,63
724,21	633,85
724,39	626,68
724,58	653,10
724,76	682,18
724,94	622,38
725,13	630,57
725,31	639,17
725,50	611,32
725,68	628,11
725,87	615,62
726,05	573,64
726,23	600,05
726,42	548,86
726,60	519,16
726,79	580,39
726,97	577,94
727,16	609,48
727,34	594,32
727,52	609,07
727,71	593,09
727,89	540,66
728,08	540,25
728,26	477,59
728,44	578,96
728,63	611,11
728,81	590,43
729,00	604,97
729,18	614,39
729,36	621,56
729,55	575,89
729,73	556,43
729,92	590,02
730,10	552,75
730,28	570,77
730,47	597,80
730,65	588,59
730,84	605,38
731,02	587,15
731,20	632,82
731,39	620,94
731,57	604,56
731,75	631,18
731,94	616,64
732,12	601,90
732,31	570,36
732,49	653,51
732,67	596,98
732,86	603,74
733,04	601,28
733,22	587,36
733,41	551,31
733,59	573,23
733,78	550,49
733,96	628,73
734,14	563,60
734,33	583,88
734,51	536,57
734,69	521,00
734,88	522,23
735,06	601,69
735,24	525,10
735,43	591,45
735,61	520,39
735,79	516,29
735,98	513,84
736,16	585,72
736,34	560,73
736,53	575,07
736,71	546,81
736,89	544,96
737,08	503,60
737,26	532,06
737,44	520,18
737,63	508,31
737,81	491,10
737,99	529,40
738,18	450,76
738,36	493,15
738,54	500,73
738,73	504,62
738,91	534,72
739,09	509,53
739,28	520,18
739,46	533,29
739,64	535,34
739,82	511,38
740,01	442,36
740,19	494,58
740,37	442,57
740,56	457,72
740,74	478,41
740,92	501,96
741,11	497,04
741,29	487,62
741,47	468,98
741,65	480,66
741,84	512,61
742,02	487,21
742,20	500,73
742,39	507,08
742,57	483,53
742,75	514,04
742,93	441,34
743,12	514,24
743,30	499,70
743,48	431,30
743,67	460,79
743,85	485,37
744,03	427,00
744,21	454,65
744,40	463,46
744,58	442,98
744,76	479,63
744,94	447,07
745,13	440,11
745,31	458,95
745,49	420,45
745,67	439,29
745,86	440,72
746,04	463,05
746,22	439,49
746,40	436,42
746,59	431,51
746,77	415,33
746,95	439,08
747,13	396,49
747,32	429,87
747,50	473,29
747,68	385,02
747,86	441,95
748,05	426,39
748,23	411,23
748,41	417,38
748,59	432,33
748,77	436,22
748,96	441,95
749,14	413,69
749,32	434,78
749,50	395,46
749,69	363,72
749,87	406,73
750,05	405,70
750,23	402,43
750,41	397,31
750,60	412,26
750,78	410,21
750,96	397,92
751,14	436,42
751,32	444,20
751,51	392,60
751,69	351,84
751,87	405,91
752,05	404,88
752,23	412,26
752,42	410,21
752,60	368,84
752,78	410,00
752,96	425,77
753,14	376,83
753,33	365,36
753,51	427,21
753,69	423,32
753,87	422,50
754,05	382,56
754,23	404,88
754,42	411,03
754,60	394,85
754,78	373,75
754,96	374,16
755,14	456,90
755,32	426,59
755,51	406,52
755,69	430,28
755,87	387,07
756,05	437,65
756,23	463,66
756,41	430,28
756,60	386,66
756,78	436,22
756,96	404,47
757,14	395,46
757,32	434,78
757,50	418,60
757,68	439,08
757,87	384,81
758,05	381,95
758,23	318,25
758,41	189,85
758,59	143,56
758,77	53,04
758,95	12,49
759,14	-52,22
759,32	-46,28
759,50	-67,38
759,68	-96,66
759,86	-30,51
760,04	-10,65
760,22	80,49
760,40	147,25
760,59	239,61
760,77	280,57
760,95	355,94
761,13	340,99
761,31	327,27
761,49	299,62
761,67	283,44
761,85	282,41
762,03	230,40
762,22	253,13
762,40	215,45
762,58	245,35
762,76	244,73
762,94	298,59
763,12	311,09
763,30	330,54
763,48	305,35
763,66	343,65
763,84	358,80
764,02	387,27
764,21	388,91
764,39	398,94
764,57	410,82
764,75	444,20
764,93	434,99
765,11	436,01
765,29	404,27
765,47	444,61
765,65	448,10
765,83	416,97
766,01	450,14
766,19	475,33
766,37	462,02
766,56	449,53
766,74	467,96
766,92	422,29
767,10	489,67
767,28	394,44
767,46	439,29
767,64	445,02
767,82	446,25
768,00	448,91
768,18	414,92
768,36	397,31
768,54	405,09
768,72	398,13
768,90	416,56
769,08	326,04
769,26	397,51
769,44	410,41
769,62	459,36
769,80	365,97
769,98	400,38
770,16	361,26
770,34	400,79
770,52	362,70
770,71	347,75
770,89	327,88
771,07	415,53
771,25	346,52
771,43	357,17
771,61	397,72
771,79	325,01
771,97	355,53
772,15	343,44
772,33	347,75
772,51	325,83
772,69	302,89
772,87	322,96
773,05	340,58
773,23	342,01
773,41	327,27
773,59	336,07
773,77	271,56
773,95	347,34
774,13	309,65
774,31	331,16
774,49	324,60
774,67	323,99
774,85	299,00
775,03	333,20
775,21	330,54
775,39	311,91
775,57	283,03
775,75	312,93
775,93	305,76
776,10	295,52
776,28	271,56
776,46	282,41
776,64	268,69
776,82	232,24
777,00	-182,06
777,18	288,35
777,36	301,26
777,54	276,68
777,72	265,01
777,90	281,60
778,08	266,44
778,26	244,12
778,44	264,80
778,62	247,19
778,80	262,96
778,98	298,39
779,16	283,44
779,34	270,74
779,52	237,15
779,70	250,67
779,88	278,52
780,05	245,96
780,23	217,29
780,41	263,57
780,59	233,88
780,77	271,56
780,95	249,65
781,13	278,11
781,31	253,95
781,49	262,75
781,67	256,00
781,85	226,91
782,03	272,99
782,21	240,02
782,39	223,43
782,56	260,91
782,74	217,70
782,92	232,85
783,10	202,34
783,28	248,01
783,46	210,53
783,64	203,36
783,82	247,80
784,00	198,65
784,18	205,21
784,35	229,78
784,53	180,02
784,71	243,71
784,89	243,09
785,07	221,59
785,25	260,30
785,43	264,60
785,61	175,92
785,79	238,79
785,96	188,00
786,14	219,13
786,32	193,53
786,50	197,42
786,68	199,27
786,86	210,12
787,04	178,79
787,22	210,74
787,39	193,74
787,57	212,78
787,75	198,04
787,93	221,80
788,11	192,10
788,29	193,94
788,47	194,97
788,65	202,34
788,82	175,72
789,00	197,42
789,18	216,68
789,36	247,19
789,54	174,49
789,72	195,17
789,89	196,81
790,07	203,16
790,25	182,68
790,43	202,34
790,61	239,41
790,79	233,06
790,96	208,69
791,14	177,76
791,32	172,85
791,50	166,70
791,68	163,02
791,86	155,03
792,03	145,00
792,21	193,12
792,39	140,70
792,57	191,49
792,75	161,38
792,93	178,17
793,10	191,69
793,28	167,73
793,46	184,52
793,64	211,35
793,82	137,62
793,99	172,64
794,17	167,73
794,35	164,04
794,53	185,34
794,71	173,67
794,88	178,79
795,06	166,09
795,24	151,34
795,42	182,47
795,60	158,92
795,77	174,28
795,95	145,00
796,13	166,30
796,31	165,89
796,49	150,94
796,66	155,03
796,84	161,38
797,02	181,04
797,20	202,54
797,37	142,13
797,55	163,22
797,73	216,68
797,91	137,42
798,08	177,15
798,26	149,30
798,44	161,38
798,62	156,87
798,80	142,13
798,97	167,93
799,15	171,62
799,33	151,34
799,51	176,13
799,68	164,66
799,86	151,96
800,04	143,36
800,22	174,08
800,39	152,57
800,57	165,48
800,75	155,85
800,93	141,31
801,10	151,14
801,28	160,77
801,46	154,62
801,63	174,08
801,81	204,18
801,99	167,11
802,17	138,85
802,34	134,76
802,52	154,21
802,70	174,49
802,88	194,97
803,05	184,52
803,23	164,45
803,41	151,55
803,58	136,19
803,76	132,71
803,94	159,13
804,12	148,27
804,29	154,42
804,47	147,25
804,65	169,57
804,82	137,21
805,00	184,93
805,18	158,92
805,35	150,32
805,53	153,80
805,71	177,15
805,89	154,83
806,06	113,25
806,24	176,13
806,42	139,67
806,59	145,00
806,77	133,94
806,95	105,68
807,12	130,25
807,30	146,63
807,48	145,82
807,65	143,36
807,83	139,88
808,01	157,49
808,18	156,26
808,36	160,36
808,54	108,75
808,71	130,25
808,89	135,17
809,07	123,29
809,24	153,80
809,42	127,38
809,60	152,98
809,77	76,80
809,95	179,40
810,13	154,42
810,30	138,24
810,48	159,13
810,66	161,79
810,83	173,87
811,01	162,40
811,18	157,08
811,36	140,70
811,54	161,99
811,71	139,06
811,89	139,67
812,07	158,10
812,24	109,77
812,42	108,95
812,59	124,72
812,77	141,31
812,95	125,95
813,12	143,36
813,30	123,90
813,48	143,97
813,65	140,70
813,83	117,35
814,00	107,31
814,18	125,95
814,36	116,94
814,53	102,19
814,71	97,28
814,88	93,80
815,06	124,72
815,24	94,21
815,41	87,45
815,59	125,54
815,76	100,76
815,94	98,92
816,12	140,70
816,29	112,02
816,47	120,22
816,64	140,90
816,82	139,67
817,00	109,36
817,17	113,25
817,35	134,14
817,52	118,78
817,70	133,94
817,87	143,56
818,05	146,22
818,23	130,46
818,40	156,87
818,58	108,34
818,75	118,78
818,93	117,55
819,10	124,52
819,28	148,68
819,46	161,79
819,63	155,65
819,81	135,58
819,98	149,09
820,16	141,92
820,33	154,21
820,51	138,03
820,68	154,42
820,86	105,68
821,03	123,90
821,21	141,11
821,39	78,03
821,56	137,21
821,74	117,55
821,91	115,10
822,09	98,51
822,26	67,58
822,44	78,23
822,61	82,33
822,79	81,51
822,96	139,26
823,14	109,36
823,31	112,23
823,49	150,53
823,66	124,11
823,84	136,60
824,01	117,35
824,19	131,07
824,36	121,03
824,54	141,92
824,71	120,83
824,89	107,11
825,06	149,71
825,24	115,51
825,41	85,81
825,59	130,87
825,76	125,54
825,94	151,96
826,11	163,43
826,29	120,83
826,46	135,58
826,64	80,69
826,81	84,58
826,99	90,11
827,16	101,17
827,34	110,80
827,51	131,48
827,69	90,32
827,86	129,23
828,04	113,25
828,21	153,80
828,39	90,52
828,56	138,85
828,74	118,78
828,91	130,25
829,09	133,32
829,26	118,78
829,43	107,72
829,61	133,94
829,78	174,28
829,96	144,38
830,13	117,35
830,31	101,99
830,48	127,59
830,66	144,79
830,83	128,82
831,01	126,15
831,18	170,39
831,35	116,53
831,53	140,70
831,70	120,63
831,88	123,08
832,05	137,62
832,23	116,32
832,40	133,73
832,57	130,25
832,75	112,84
832,92	97,89
833,10	122,47
833,27	89,09
833,45	119,40
833,62	107,72
833,79	169,16
833,97	178,17
834,14	91,34
834,32	119,40
834,49	147,04
834,66	101,78
834,84	194,56
835,01	117,96
835,19	161,18
835,36	123,08
835,53	100,35
835,71	128,82
835,88	133,94
836,06	130,05
836,23	134,14
836,40	131,07
836,58	147,86
836,75	121,85
836,93	123,90
837,10	132,30
837,27	118,37
837,45	137,42
837,62	124,52
837,79	166,50
837,97	101,17
838,14	77,82
838,32	115,51
838,49	116,94
838,66	111,41
838,84	137,21
839,01	137,21
839,18	132,71
839,36	138,85
839,53	132,91
839,70	116,94
839,88	113,87
840,05	103,01
840,23	120,22
840,40	138,65
840,57	120,22
840,75	166,30
840,92	126,36
841,09	104,04
841,27	141,11
841,44	102,19
841,61	136,19
841,79	91,54
841,96	133,12
842,13	129,43
842,31	141,31
842,48	182,68
842,65	123,29
842,83	159,74
843,00	119,81
843,17	140,08
843,35	141,31
843,52	113,25
843,69	101,17
843,86	134,14
844,04	126,97
844,21	115,71
844,38	101,17
844,56	113,66
844,73	135,37
844,90	102,40
845,08	90,11
845,25	98,10
845,42	131,68
845,60	157,28
845,77	96,87
845,94	115,10
846,11	92,77
846,29	95,64
846,46	98,92
846,63	110,80
846,81	109,77
846,98	148,27
847,15	142,13
847,32	158,72
847,50	119,81
847,67	116,32
847,84	113,05
848,01	92,98
848,19	98,92
848,36	135,37
848,53	87,86
848,71	113,05
848,88	112,23
849,05	107,72
849,22	93,59
849,40	79,05
849,57	87,65
849,74	81,30
849,91	80,69
850,09	115,30
850,26	89,91
850,43	72,09
850,60	105,88
850,78	122,67
850,95	105,27
851,12	77,41
851,29	105,88
851,47	60,42
851,64	104,65
851,81	73,11
851,98	117,96
852,15	98,71
852,33	94,41
852,50	93,39
852,67	86,83
852,84	106,08
853,02	88,68
853,19	60,42
853,36	82,53
853,53	63,08
853,70	50,18
853,88	56,11
854,05	56,73
854,22	52,02
854,39	86,22
854,56	75,37
854,74	90,32
854,91	92,16
855,08	112,64
855,25	105,27
855,42	81,30
855,60	83,97
855,77	118,58
855,94	71,47
856,11	96,46
856,28	107,52
856,46	70,04
856,63	84,58
856,80	92,57
856,97	75,16
857,14	86,01
857,31	114,48
857,49	104,24
857,66	119,81
857,83	82,53
858,00	72,70
858,17	106,49
858,34	103,22
858,52	87,65
858,69	79,05
858,86	60,01
859,03	93,18
859,20	76,80
859,37	78,23
859,55	94,62
859,72	95,84
859,89	66,35
860,06	77,21
860,23	77,62
860,40	102,81
860,57	71,27
860,75	105,47
860,92	65,33
861,09	65,94
861,26	80,08
861,43	108,95
861,60	82,94
861,77	69,22
861,95	66,97
862,12	69,63
862,29	68,40
862,46	110,80
862,63	64,31
862,80	82,33
862,97	76,18
863,14	89,91
863,31	52,22
863,49	57,34
863,66	101,58
863,83	81,92
864,00	75,16
864,17	83,15
864,34	77,82
864,51	88,88
864,68	92,16
864,85	20,89
865,02	22,32
865,20	78,44
865,37	66,56
865,54	65,74
865,71	76,18
865,88	58,57
866,05	43,83
866,22	88,47
866,39	50,58
866,56	63,90
866,73	66,97
866,90	48,13
867,07	68,61
867,25	83,15
867,42	95,23
867,59	94,82
867,76	83,76
867,93	62,46
868,10	94,41
868,27	64,92
868,44	49,77
868,61	35,23
868,78	46,08
868,95	77,82
869,12	55,91
869,29	64,31
869,46	69,22
869,63	90,73
869,80	19,87
869,97	70,65
870,14	90,11
870,32	108,54
870,49	38,71
870,66	63,49
870,83	28,88
871,00	67,38
871,17	53,04
871,34	55,09
871,51	31,74
871,68	47,92
871,85	49,15
872,02	73,32
872,19	94,82
872,36	47,31
872,53	38,71
872,70	49,15
872,87	59,39
873,04	48,95
873,21	57,14
873,38	92,16
873,55	35,84
873,72	62,46
873,89	60,42
874,06	29,49
874,23	53,04
874,40	50,99
874,57	47,51
874,74	40,55
874,91	11,26
875,08	46,28
875,25	80,08
875,42	17,41
875,59	54,07
875,76	34,20
875,93	78,03
876,10	53,66
876,27	40,55
876,44	28,06
876,61	25,60
876,78	18,02
876,95	47,72
877,12	57,14
877,29	44,24
877,46	61,44
877,62	36,45
877,79	22,53
877,96	21,09
878,13	53,86
878,30	74,14
878,47	52,43
878,64	49,77
878,81	41,98
878,98	12,29
879,15	58,98
879,32	49,15
879,49	54,48
879,66	17,00
879,83	56,52
880,00	64,10
880,17	48,74
880,34	50,58
880,51	41,78
880,67	35,02
880,84	15,77
881,01	32,97
881,18	29,70
881,35	18,43
881,52	22,53
881,69	25,60
881,86	17,20
882,03	28,88
882,20	41,57
882,37	31,54
882,54	46,49
882,70	53,86
882,87	37,48
883,04	48,13
883,21	10,85
883,38	75,77
883,55	7,37
883,72	41,98
883,89	27,65
884,06	41,16
884,23	18,64
884,39	32,36
884,56	36,45
884,73	27,44
884,90	16,59
885,07	-14,95
885,24	30,51
885,41	20,89
885,58	28,67
885,74	27,24
885,91	34,00
886,08	45,67
886,25	23,35
886,42	23,14
886,59	1,64
886,76	55,30
886,93	29,49
887,09	24,99
887,26	62,05
887,43	29,49
887,60	9,01
887,77	45,26
887,94	52,02
888,10	24,17
888,27	51,61
888,44	41,57
888,61	37,27
888,78	30,11
888,95	40,55
889,12	24,58
889,28	56,11
889,45	24,17
889,62	38,30
889,79	44,85
889,96	27,44
890,13	31,13
890,29	27,24
890,46	-5,12
890,63	41,37
890,80	-2,05
890,97	52,63
891,13	19,46
891,30	66,15
891,47	14,75
891,64	31,74
891,81	20,27
891,98	56,11
892,14	13,11
892,31	11,67
892,48	0,41
892,65	29,08
892,82	-7,99
892,98	7,78
893,15	-3,07
893,32	18,02
>>>>>End Processed Spectral Data<<<<<