SpectraSuite Datei
++++++++++++++++++++++++++++++++++++
Datum: Mon Mar 05 11:09:20 CET 2018
Benutzer: Admin
Dark-Spektrum vorhanden: Ja
Referenz-Spektrum vorhanden: Nein
Zahl der probierten Teilspektren: 1
Spektrometer: USB4F05832
Integrationszeit (usec): 500000 (USB4F05832)
Spektren Durchschnitt berechnet: 6 (USB4F05832)
Boxcar Glâ€°ttung: 0 (USB4F05832)
Dunkelstromkorrektur: Nein (USB4F05832)
Puls/Lampe aktiviert: Nein (USB4F05832)
Correct for Detector Non-linearity: Nein (USB4F05832)
Streulichtkorrektur: Nein (USB4F05832)
Anzahl Pixel in verarbeitetem Spektrum: 3648
>>>>>Begin Processed Spectral Data<<<<<
177,54	-18,09
177,75	-18,09
177,97	-18,09
178,19	-48,13
178,41	-18,09
178,63	-12,63
178,85	-18,09
179,07	-14,34
179,29	24,23
179,51	-8,19
179,73	13,65
179,95	-33,45
180,17	-24,92
180,39	3,75
180,61	-31,40
180,83	-4,10
181,05	5,80
181,27	-33,79
181,49	305,49
181,71	521,21
181,92	490,49
182,14	471,72
182,36	511,65
182,58	557,39
182,80	509,26
183,02	555,34
183,24	456,70
183,46	496,63
183,68	472,40
183,90	488,78
184,12	530,08
184,34	463,86
184,56	533,15
184,78	475,47
185,00	547,83
185,21	501,07
185,43	491,51
185,65	505,51
185,87	509,94
186,09	511,65
186,31	507,55
186,53	489,81
186,75	489,81
186,97	466,25
187,19	500,39
187,41	466,94
187,63	518,82
187,84	474,45
188,06	508,58
188,28	514,38
188,50	544,42
188,72	507,90
188,94	505,85
189,16	539,64
189,38	463,52
189,60	530,77
189,82	460,45
190,03	535,89
190,25	508,92
190,47	530,77
190,69	512,67
190,91	547,83
191,13	519,50
191,35	498,34
191,57	542,37
191,79	508,92
192,01	494,24
192,22	546,47
192,44	519,50
192,66	507,55
192,88	526,67
193,10	521,55
193,32	588,45
193,54	548,86
193,76	553,63
193,98	556,36
194,19	534,86
194,41	547,15
194,63	536,91
194,85	580,94
195,07	528,38
195,29	588,79
195,51	620,19
195,73	671,39
195,94	704,16
196,16	761,50
196,38	687,43
196,60	614,05
196,82	577,53
197,04	568,65
197,26	569,68
197,48	532,81
197,69	558,07
197,91	514,72
198,13	562,51
198,35	562,51
198,57	511,99
198,79	517,45
199,01	503,12
199,22	480,59
199,44	539,30
199,66	557,05
199,88	593,91
200,10	548,86
200,32	569,34
200,54	525,65
200,75	542,71
200,97	558,07
201,19	520,87
201,41	614,73
201,63	494,24
201,85	512,67
202,06	508,92
202,28	532,13
202,50	520,18
202,72	488,44
202,94	545,10
203,16	545,78
203,38	539,98
203,59	570,02
203,81	499,02
204,03	507,55
204,25	595,28
204,47	522,57
204,69	531,11
204,90	509,94
205,12	575,82
205,34	550,22
205,56	541,35
205,78	544,42
206,00	545,44
206,21	594,25
206,43	600,05
206,65	594,25
206,87	553,63
207,09	555,34
207,30	512,33
207,52	535,54
207,74	533,84
207,96	498,68
208,18	580,94
208,40	549,54
208,61	507,55
208,83	518,14
209,05	554,32
209,27	560,80
209,49	615,41
209,70	583,33
209,92	542,71
210,14	565,58
210,36	545,10
210,58	557,73
210,79	571,72
211,01	545,78
211,23	585,04
211,45	602,79
211,67	532,81
211,88	548,17
212,10	606,54
212,32	582,65
212,54	593,23
212,76	557,05
212,97	549,20
213,19	552,27
213,41	561,83
213,63	598,69
213,85	534,86
214,06	542,37
214,28	544,08
214,50	535,89
214,72	555,00
214,94	585,38
215,15	622,24
215,37	598,69
215,59	621,56
215,81	561,48
216,02	540,32
216,24	537,93
216,46	547,15
216,68	559,10
216,90	594,93
217,11	577,19
217,33	541,69
217,55	620,53
217,77	606,88
217,98	585,38
218,20	547,15
218,42	588,45
218,64	587,77
218,85	608,59
219,07	586,06
219,29	565,24
219,51	577,53
219,73	599,71
219,94	627,02
220,16	592,20
220,38	605,52
220,60	589,13
220,81	578,21
221,03	567,29
221,25	585,38
221,47	570,36
221,68	609,61
221,90	598,01
222,12	645,11
222,34	549,88
222,55	607,22
222,77	631,46
222,99	577,87
223,21	658,76
223,42	574,11
223,64	602,79
223,86	626,34
224,08	589,47
224,29	619,51
224,51	613,37
224,73	604,15
224,94	587,08
225,16	607,56
225,38	608,59
225,60	608,93
225,81	657,74
226,03	588,79
226,25	653,64
226,47	663,88
226,68	626,34
226,90	609,27
227,12	590,16
227,33	645,45
227,55	608,25
227,77	640,67
227,99	648,52
228,20	698,02
228,42	753,31
228,64	818,50
228,86	955,04
229,07	943,43
229,29	1037,30
229,51	1049,93
229,72	1089,86
229,94	1033,88
230,16	878,58
230,38	820,21
230,59	718,84
230,81	691,19
231,03	687,09
231,24	639,65
231,46	621,56
231,68	616,44
231,89	623,27
232,11	635,89
232,33	777,55
232,55	610,29
232,76	669,34
232,98	615,76
233,20	643,74
233,41	688,46
233,63	629,07
233,85	635,55
234,06	629,75
234,28	647,84
234,50	638,28
234,71	567,97
234,93	616,78
235,15	642,38
235,37	601,08
235,58	665,93
235,80	626,34
236,02	679,24
236,23	709,96
236,45	646,82
236,67	709,96
236,88	688,12
237,10	677,19
237,32	644,77
237,53	665,93
237,75	667,64
237,97	604,83
238,18	692,90
238,40	691,87
238,62	652,28
238,83	664,57
239,05	710,30
239,27	661,84
239,48	659,45
239,70	663,88
239,92	651,60
240,13	665,59
240,35	646,13
240,57	669,00
240,78	668,66
241,00	687,78
241,22	662,52
241,43	737,95
241,65	667,30
241,87	669,34
242,08	631,12
242,30	657,40
242,52	692,21
242,73	635,55
242,95	679,93
243,16	659,45
243,38	651,25
243,60	672,76
243,81	684,70
244,03	674,12
244,25	731,12
244,46	662,52
244,68	692,21
244,90	638,97
245,11	654,33
245,33	683,68
245,55	691,87
245,76	707,57
245,98	743,07
246,19	740,34
246,41	729,08
246,63	697,67
246,84	708,60
247,06	676,85
247,28	722,59
247,49	679,24
247,71	703,48
247,92	672,42
248,14	662,18
248,36	744,44
248,57	696,99
248,79	770,38
249,01	724,98
249,22	807,58
249,44	760,48
249,65	714,40
249,87	741,71
250,09	760,82
250,30	739,66
250,52	739,32
250,73	750,24
250,95	777,89
251,17	791,88
251,38	686,75
251,60	743,41
251,81	712,01
252,03	720,88
252,25	715,42
252,46	745,80
252,68	748,87
252,89	768,67
253,11	714,06
253,33	715,77
253,54	673,10
253,76	698,02
253,97	760,14
254,19	709,96
254,41	750,58
254,62	707,23
254,84	749,90
255,05	730,10
255,27	751,60
255,49	781,30
255,70	738,29
255,92	810,65
256,13	748,19
256,35	793,25
256,56	733,51
256,78	762,19
257,00	830,79
257,21	850,93
257,43	893,60
257,64	916,81
257,86	837,28
258,08	910,32
258,29	837,96
258,51	856,73
258,72	861,85
258,94	838,30
259,15	900,08
259,37	889,16
259,59	868,34
259,80	895,65
260,02	926,02
260,23	961,18
260,45	948,89
260,66	1011,70
260,88	1006,92
261,09	1097,03
261,31	1098,74
261,53	1117,85
261,74	1194,99
261,96	1186,46
262,17	1248,92
262,39	1235,61
262,60	1307,29
262,82	1293,63
263,03	1384,77
263,25	1405,59
263,46	1380,67
263,68	1376,92
263,90	1419,58
264,11	1434,26
264,33	1467,37
264,54	1450,99
264,76	1428,46
264,97	1429,48
265,19	1380,67
265,40	1453,38
265,62	1405,93
265,83	1390,23
266,05	1442,45
266,26	1484,78
266,48	1519,93
266,70	1555,43
266,91	1554,41
267,13	1529,15
267,34	1491,26
267,56	1508,33
267,77	1480,00
267,99	1458,15
268,20	1534,95
268,42	1463,27
268,63	1548,95
268,85	1531,54
269,06	1558,85
269,28	1543,14
269,49	1586,49
269,71	1583,08
269,92	1533,93
270,14	1630,52
270,35	1641,11
270,57	1585,81
270,78	1616,19
271,00	1653,05
271,21	1620,63
271,43	1717,56
271,64	1761,59
271,86	1769,10
272,07	1776,95
272,29	1799,14
272,50	1848,63
272,72	1861,94
272,93	1804,94
273,15	1910,41
273,36	1856,48
273,58	1907,34
273,79	1890,96
274,01	1912,80
274,22	1859,90
274,44	1896,08
274,65	1936,01
274,87	1979,02
275,08	1989,26
275,30	1991,99
275,51	2002,57
275,73	1943,52
275,94	1952,06
276,16	1948,30
276,37	1920,31
276,59	1953,08
276,80	2034,32
277,02	2009,40
277,23	1975,61
277,45	1982,78
277,66	2000,52
277,88	2086,20
278,09	1973,90
278,30	1983,12
278,52	2035,00
278,73	1953,42
278,95	1967,07
279,16	1986,53
279,38	2002,23
279,59	1990,63
279,81	2061,96
280,02	1946,59
280,24	1928,16
280,45	1953,08
280,67	1956,49
280,88	1895,40
281,09	1829,18
281,31	1850,68
281,52	1893,69
281,74	1899,15
281,95	1917,58
282,17	1883,45
282,38	1907,00
282,60	1892,66
282,81	2024,08
283,02	2270,86
283,24	2600,92
283,45	2976,38
283,67	3142,61
283,88	3150,80
284,10	2875,35
284,31	2521,73
284,53	2231,26
284,74	1951,03
284,95	1831,23
285,17	1798,80
285,38	1734,29
285,60	1853,75
285,81	1772,52
286,03	1803,92
286,24	1825,08
286,45	1812,79
286,67	1829,86
286,88	1823,03
287,10	1768,76
287,31	1789,92
287,53	1811,43
287,74	1848,63
287,95	1814,16
288,17	1778,32
288,38	1814,16
288,60	1755,79
288,81	1848,63
289,02	1808,70
289,24	1843,51
289,45	1837,03
289,67	1842,15
289,88	1856,48
290,10	1839,76
290,31	1846,24
290,52	1830,88
290,74	1854,78
290,95	1846,59
291,17	1924,75
291,38	1884,81
291,59	1908,37
291,81	1907,68
292,02	1871,16
292,24	1829,86
292,45	1738,73
292,66	1850,34
292,88	1801,53
293,09	1774,22
293,31	1760,57
293,52	1760,57
293,73	1773,88
293,95	1781,73
294,16	1720,29
294,37	1750,67
294,59	1747,94
294,80	1749,65
295,02	1703,57
295,23	1644,18
295,44	1664,32
295,66	1629,84
295,87	1584,45
296,09	1561,92
296,30	1608,34
296,51	1514,13
296,73	1460,20
296,94	1322,31
297,15	1271,11
297,37	1209,67
297,58	1194,99
297,79	1182,70
298,01	1075,52
298,22	977,56
298,44	968,69
298,65	967,32
298,86	1014,09
299,08	965,62
299,29	950,26
299,50	955,72
299,72	962,89
299,93	944,11
300,14	931,14
300,36	962,89
300,57	934,22
300,79	895,99
301,00	978,59
301,21	966,30
301,43	951,96
301,64	1035,25
301,85	1072,45
302,07	1012,38
302,28	1021,94
302,49	1045,49
302,71	1066,65
302,92	1112,05
303,13	1425,73
303,35	1953,76
303,56	2427,18
303,77	2897,53
303,99	3061,03
304,20	2813,91
304,41	2363,70
304,63	1862,97
304,84	1398,08
305,05	1213,42
305,27	1095,66
305,48	1121,95
305,69	1079,96
305,91	1033,88
306,12	1034,91
306,33	1086,79
306,55	1031,15
306,76	1120,58
306,97	1150,28
307,19	1140,04
307,40	1113,41
307,61	1125,02
307,82	1155,74
308,04	1214,45
308,25	1280,32
308,46	1308,99
308,68	1280,66
308,89	1289,20
309,10	1215,47
309,32	1193,62
309,53	1179,97
309,74	1168,02
309,96	1112,05
310,17	1161,20
310,38	1120,92
310,59	1120,24
310,81	1115,80
311,02	1140,38
311,23	1114,78
311,45	1074,84
311,66	1145,16
311,87	1057,43
312,09	1114,09
312,30	1073,14
312,51	1034,91
312,72	1096,35
312,94	1114,78
313,15	1100,10
313,36	1102,83
313,58	1160,86
313,79	1165,29
314,00	1123,31
314,21	1086,79
314,43	1157,10
314,64	1183,38
314,85	1138,67
315,06	1089,52
315,28	1168,37
315,49	1132,87
315,70	1107,95
315,92	1144,81
316,13	1244,48
316,34	1174,17
316,55	1184,75
316,77	1145,50
316,98	1209,33
317,19	1256,09
317,40	1233,56
317,62	1229,46
317,83	1252,67
318,04	1180,65
318,25	1326,40
318,47	1209,33
318,68	1271,45
318,89	1252,33
319,11	1236,97
319,32	1221,61
319,53	1266,67
319,74	1287,83
319,96	1324,01
320,17	1253,02
320,38	1297,39
320,59	1363,61
320,81	1297,05
321,02	1332,89
321,23	1335,96
321,44	1322,31
321,65	1350,29
321,87	1351,66
322,08	1352,00
322,29	1429,82
322,50	1416,51
322,72	1491,95
322,93	1505,94
323,14	1594,69
323,35	1634,62
323,57	1681,72
323,78	1815,87
323,99	1851,36
324,20	1877,30
324,41	1958,88
324,63	2025,44
324,84	2048,99
325,05	1961,27
325,26	2121,70
325,48	2085,17
325,69	2078,69
325,90	2130,57
326,11	2104,29
326,32	2095,07
326,54	2209,76
326,75	2243,21
326,96	2470,19
327,17	2546,31
327,39	2830,63
327,60	3200,63
327,81	3849,50
328,02	4877,24
328,23	7592,16
328,45	15152,58
328,66	41105,80
328,87	63445,05
329,08	63408,87
329,29	63293,50
329,51	63394,53
329,72	63488,40
329,93	63332,07
330,14	63502,39
330,35	63376,44
330,56	63514,34
330,78	63404,77
330,99	63345,38
331,20	63216,36
331,41	63392,14
331,62	63549,49
331,84	63415,35
332,05	63403,06
332,26	63377,12
332,47	63383,95
332,68	63546,08
332,90	63448,12
333,11	63631,41
333,32	63314,66
333,53	63293,16
333,74	63715,04
333,95	63393,51
334,17	63397,60
334,38	63353,23
334,59	27946,58
334,80	1871,50
335,01	1875,94
335,22	1762,96
335,44	1738,04
335,65	1789,58
335,86	1783,44
336,07	1725,76
336,28	1719,95
336,49	1756,82
336,71	1699,47
336,92	1642,47
337,13	1602,54
337,34	1600,83
337,55	1594,69
337,76	1602,54
337,97	1589,22
338,19	1589,22
338,40	1560,55
338,61	1598,44
338,82	1628,14
339,03	1604,92
339,24	1604,24
339,45	1613,12
339,67	1590,59
339,88	1587,86
340,09	1594,00
340,30	1589,91
340,51	1580,01
340,72	1566,01
340,93	1528,81
341,15	1632,23
341,36	1681,04
341,57	1664,66
341,78	1794,70
341,99	1730,87
342,20	1789,58
342,41	1713,81
342,62	1621,65
342,84	1547,92
343,05	1575,23
343,26	1546,22
343,47	1564,31
343,68	1517,89
343,89	1564,99
344,10	1576,59
344,31	1566,35
344,53	1552,36
344,74	1523,35
344,95	1567,04
345,16	1547,58
345,37	1564,31
345,58	1538,71
345,79	1583,08
346,00	1595,37
346,21	1572,16
346,42	1566,70
346,64	1565,67
346,85	1576,59
347,06	1573,86
347,27	1563,28
347,48	1591,95
347,69	1573,52
347,90	1526,42
348,11	1565,33
348,32	1590,25
348,53	1600,83
348,75	1540,76
348,96	1556,11
349,17	1576,94
349,38	1579,33
349,59	1560,21
349,80	1590,93
350,01	1570,45
350,22	1630,87
350,43	1560,55
350,64	1586,15
350,85	1611,75
351,06	1532,56
351,28	1599,80
351,49	1637,01
351,70	1561,92
351,91	1587,52
352,12	1631,55
352,33	1595,71
352,54	1530,52
352,75	1600,15
352,96	1598,44
353,17	1702,89
353,38	1600,49
353,59	1639,74
353,80	1653,39
354,01	1628,82
354,22	1624,04
354,44	1683,77
354,65	1715,52
354,86	1737,02
355,07	1763,98
355,28	1718,59
355,49	1694,01
355,70	1669,44
355,91	1779,68
356,12	1753,06
356,33	1743,85
356,54	1669,44
356,75	1636,33
356,96	1746,23
357,17	1911,44
357,38	2113,85
357,59	2409,44
357,80	2762,37
358,01	3051,81
358,22	3243,98
358,43	3228,28
358,64	3028,26
358,85	2823,47
359,07	2537,43
359,28	2271,54
359,49	2127,84
359,70	1989,94
359,91	1896,42
360,12	1838,39
360,33	1796,41
360,54	1808,02
360,75	1720,98
360,96	1730,87
361,17	1720,29
361,38	1688,89
361,59	1794,02
361,80	1774,22
362,01	1771,15
362,22	1785,15
362,43	1760,91
362,64	1782,76
362,85	1806,99
363,06	1760,91
363,27	1838,73
363,48	1796,07
363,69	1782,07
363,90	1788,56
364,11	1825,76
364,32	1800,51
364,53	1897,10
364,74	1866,04
364,95	1826,11
365,16	1809,04
365,37	1833,96
365,58	1834,98
365,79	1897,44
366,00	1825,76
366,21	1897,78
366,42	1874,57
366,63	1875,26
366,84	1918,95
367,05	1835,32
367,26	1899,83
367,47	1881,06
367,68	1827,81
367,89	1758,18
368,10	1792,66
368,31	1713,81
368,52	1829,86
368,73	1887,89
368,94	1850,00
369,15	1790,61
369,36	1803,24
369,57	1834,98
369,78	1818,94
369,99	1826,79
370,20	1891,64
370,40	1885,50
370,61	1929,19
370,82	1821,67
371,03	1867,75
371,24	1956,83
371,45	1935,67
371,66	1864,33
371,87	1938,40
372,08	1958,88
372,29	1894,37
372,50	1928,16
372,71	1902,56
372,92	1900,86
373,13	1902,56
373,34	1987,90
373,55	1943,52
373,76	1956,49
373,97	2019,98
374,18	1989,60
374,39	1954,79
374,60	2014,18
374,81	2044,21
375,01	2032,61
375,22	2046,94
375,43	2022,71
375,64	2085,86
375,85	2056,16
376,06	2080,39
376,27	2029,54
376,48	2060,26
376,69	2016,23
376,90	1991,31
377,11	1930,89
377,32	2033,29
377,53	1946,59
377,74	1982,09
377,94	2063,33
378,15	2081,76
378,36	2053,43
378,57	2020,32
378,78	2025,44
378,99	2073,23
379,20	2076,64
379,41	2085,17
379,62	2094,39
379,83	2142,18
380,04	2050,36
380,25	2065,04
380,45	1997,11
380,66	2059,57
380,87	2019,98
381,08	2003,25
381,29	2064,69
381,50	1960,25
381,71	1983,80
381,92	2020,32
382,13	1996,77
382,34	1929,53
382,55	1949,67
382,75	2029,88
382,96	2033,63
383,17	1998,13
383,38	2001,89
383,59	1983,12
383,80	1932,26
384,01	1981,41
384,22	2017,93
384,43	1984,48
384,63	1938,40
384,84	1970,49
385,05	2029,54
385,26	1998,82
385,47	2003,25
385,68	2083,81
385,89	2219,66
386,10	2188,25
386,30	2276,66
386,51	2260,62
386,72	2254,13
386,93	2194,74
387,14	2114,87
387,35	2096,44
387,56	2083,81
387,77	2051,38
387,97	2102,92
388,18	2087,22
388,39	2111,46
388,60	2046,26
388,81	2036,70
389,02	2042,51
389,23	2029,20
389,43	2065,04
389,64	2119,99
389,85	2101,90
390,06	2111,46
390,27	2117,26
390,48	2163,68
390,69	2151,05
390,89	2299,19
391,10	2418,65
391,31	2522,41
391,52	2770,56
391,73	2924,50
391,94	2929,28
392,14	2850,09
392,35	2674,65
392,56	2530,61
392,77	2370,52
392,98	2288,95
393,19	2284,85
393,39	2365,75
393,60	2434,69
393,81	2591,70
394,02	2591,02
394,23	2722,09
394,44	2482,14
394,64	2432,99
394,85	2375,30
395,06	2238,77
395,27	2195,76
395,48	2221,36
395,69	2180,75
395,89	2212,83
396,10	2240,48
396,31	2153,44
396,52	2242,53
396,73	2252,77
396,93	2245,60
397,14	2292,02
397,35	2221,70
397,56	2212,49
397,77	2163,00
397,97	2188,25
398,18	2234,33
398,39	2186,21
398,60	2188,94
398,81	2214,20
399,01	2207,03
399,22	2232,97
399,43	2212,83
399,64	2297,48
399,85	2124,08
400,05	2215,56
400,26	2205,32
400,47	2284,51
400,68	2313,86
400,89	2286,56
401,09	2224,44
401,30	2270,17
401,51	2300,89
401,72	2306,01
401,93	2341,85
402,13	2325,81
402,34	2343,22
402,55	2381,11
402,76	2537,43
402,96	2674,65
403,17	2762,37
403,38	3035,09
403,59	3100,97
403,80	3238,18
404,00	3035,77
404,21	2821,42
404,42	2693,76
404,63	2604,33
404,83	2580,78
405,04	2364,72
405,25	2457,22
405,46	2425,48
405,66	2411,48
405,87	2446,64
406,08	2462,00
406,29	2515,25
406,49	2440,15
406,70	2492,04
406,91	2385,88
407,12	2536,07
407,32	2565,76
407,53	2734,72
407,74	2899,92
407,95	3140,22
408,15	3413,62
408,36	3711,60
408,57	3954,97
408,78	3973,06
408,98	3797,28
409,19	3509,88
409,40	3279,82
409,61	3113,60
409,81	2866,13
410,02	2809,81
410,23	2712,19
410,44	2680,11
410,64	2551,43
410,85	2601,94
411,06	2578,39
411,26	2657,24
411,47	2665,43
411,68	2591,70
411,89	2551,77
412,09	2581,81
412,30	2613,55
412,51	2610,48
412,72	2616,28
412,92	2625,84
413,13	2565,08
413,34	2692,40
413,54	2626,86
413,75	2688,30
413,96	2904,70
414,17	3389,73
414,37	4118,81
414,58	4941,07
414,79	5719,29
414,99	6023,42
415,20	6001,23
415,41	5243,82
415,61	4659,13
415,82	3858,03
416,03	3366,86
416,24	3128,27
416,44	3036,80
416,65	3095,16
416,86	3201,32
417,06	3245,35
417,27	3342,63
417,48	3569,95
417,68	3774,41
417,89	4005,49
418,10	4263,53
418,30	5009,67
418,51	5840,47
418,72	6453,15
418,92	7350,50
419,13	7012,93
419,34	6692,42
419,55	5666,39
419,75	4725,69
419,96	4004,80
420,17	3656,99
420,37	3472,33
420,58	3261,73
420,79	3258,66
420,99	3250,81
421,20	3110,18
421,41	2825,17
421,61	2555,52
421,82	2508,08
422,03	2486,92
422,23	2540,51
422,44	2728,58
422,65	3047,72
422,85	3298,25
423,06	3512,61
423,26	3566,54
423,47	3721,84
423,68	3427,96
423,88	3280,50
424,09	3132,37
424,30	3192,44
424,50	3324,19
424,71	3402,02
424,92	3611,25
425,12	3692,15
425,33	3958,38
425,54	4068,97
425,74	4417,81
425,95	4753,34
426,15	5310,04
426,36	5263,28
426,57	5529,17
426,77	5100,12
426,98	4706,23
427,19	4061,46
427,39	3656,65
427,60	3258,66
427,81	3088,00
428,01	2887,98
428,22	2969,55
428,42	2977,75
428,63	3128,61
428,84	3260,71
429,04	3258,32
429,25	3167,52
429,45	2997,20
429,66	2786,60
429,87	2691,71
430,07	2612,18
430,28	2667,82
430,49	2873,64
430,69	3454,92
430,90	4080,92
431,10	4697,36
431,31	5218,57
431,52	5589,59
431,72	5328,47
431,93	5029,47
432,13	4704,53
432,34	4452,28
432,55	4047,81
432,75	3876,46
432,96	3691,80
433,16	3565,51
433,37	3535,82
433,58	3385,63
433,78	3293,82
433,99	2965,12
434,19	2837,46
434,40	2586,24
434,60	2545,97
434,81	2444,25
435,02	2343,56
435,22	2327,52
435,43	2337,07
435,63	2314,20
435,84	2344,92
436,05	2369,16
436,25	2331,27
436,46	2474,29
436,66	2496,13
436,87	2493,74
437,07	2708,78
437,28	3126,57
437,48	3965,89
437,69	4997,73
437,90	6277,02
438,10	7191,78
438,31	7667,25
438,51	7750,88
438,72	6580,81
438,92	5317,21
439,13	4250,90
439,34	3342,97
439,54	2929,62
439,75	2620,38
439,95	2459,95
440,16	2479,41
440,36	2545,28
440,57	2613,21
440,77	2858,96
440,98	2976,38
441,18	3024,85
441,39	3121,10
441,60	3144,66
441,80	2937,81
442,01	2718,68
442,21	2673,62
442,42	2452,78
442,62	2429,23
442,83	2387,59
443,03	2284,85
443,24	2296,11
443,44	2193,37
443,65	2294,75
443,85	2209,08
444,06	2258,57
444,26	2327,86
444,47	2361,31
444,67	2390,66
444,88	2379,74
445,09	2406,02
445,29	2373,25
445,50	2338,78
445,70	2352,09
445,91	2366,09
446,11	2337,42
446,32	2424,45
446,52	2386,22
446,73	2471,90
446,93	2411,48
447,14	2477,36
447,34	2610,82
447,55	2971,60
447,75	3899,33
447,96	5710,76
448,16	7953,97
448,37	10282,51
448,57	11873,44
448,78	12816,53
448,98	12000,76
449,19	10334,05
449,39	8413,40
449,60	6383,18
449,80	5198,43
450,01	4334,53
450,21	3762,46
450,42	3413,62
450,62	3129,98
450,83	2941,91
451,03	2921,43
451,23	2811,18
451,44	2788,99
451,64	2771,58
451,85	2665,43
452,05	2646,32
452,26	2771,93
452,46	2844,29
452,67	3086,29
452,87	3472,67
453,08	3840,62
453,28	4101,74
453,49	4429,07
453,69	4345,11
453,90	4195,26
454,10	3966,57
454,31	3614,32
454,51	3391,09
454,71	3317,37
454,92	3155,24
455,12	2934,40
455,33	2902,65
455,53	2777,39
455,74	2779,09
455,94	2647,68
456,15	2636,76
456,35	2724,14
456,55	2612,87
456,76	2689,32
456,96	2686,25
457,17	2674,99
457,37	2827,22
457,58	2824,15
457,78	2980,82
457,99	3086,63
458,19	3235,45
458,39	3452,88
458,60	3796,25
458,80	3905,14
459,01	3841,31
459,21	3840,28
459,42	3721,50
459,62	3468,92
459,82	3363,79
460,03	3153,53
460,23	3079,46
460,44	2870,23
460,64	2781,48
460,85	2796,50
461,05	2785,58
461,25	2844,97
461,46	2953,17
461,66	3009,83
461,87	3024,17
462,07	3111,21
462,27	3065,81
462,48	3035,43
462,68	3012,22
462,89	2951,81
463,09	3003,69
463,29	2946,00
463,50	2972,97
463,70	2918,36
463,91	2958,29
464,11	3097,55
464,31	3209,51
464,52	3940,29
464,72	5945,59
464,93	9961,66
465,13	16719,62
465,33	24127,80
465,54	29930,04
465,74	33865,89
465,95	35238,72
466,15	31254,05
466,35	25383,21
466,56	17932,01
466,76	12358,81
466,96	8737,32
467,17	6381,47
467,37	5020,60
467,58	4192,53
467,78	3746,08
467,98	3577,12
468,19	3422,50
468,39	3419,08
468,59	3351,50
468,80	3424,20
469,00	3333,41
469,21	3365,50
469,41	3411,23
469,61	3376,76
469,82	3281,19
470,02	3361,06
470,22	3395,19
470,43	3495,54
470,63	3471,99
470,83	3540,94
471,04	3504,42
471,24	3403,38
471,45	3375,39
471,65	3361,74
471,85	3223,50
472,06	3269,24
472,26	3308,15
472,46	3278,80
472,67	3339,55
472,87	3521,14
473,07	4087,40
473,28	4970,08
473,48	6774,00
473,68	8513,75
473,89	10027,20
474,09	11143,00
474,29	10902,02
474,50	10082,15
474,70	8435,24
474,90	6875,71
475,11	5673,21
475,31	4950,28
475,51	4466,96
475,72	4181,95
475,92	3983,30
476,12	3874,07
476,33	3877,15
476,53	3744,37
476,73	3725,26
476,93	3814,34
477,14	3835,16
477,34	3815,71
477,54	3952,92
477,75	3884,31
477,95	4038,94
478,15	3973,40
478,36	4083,31
478,56	4092,18
478,76	4082,63
478,97	3971,01
479,17	3936,54
479,37	3881,58
479,57	3870,32
479,78	3865,54
479,98	3809,56
480,18	3905,14
480,39	3892,51
480,59	3973,06
480,79	3926,64
480,99	4023,92
481,20	3992,52
481,40	3951,90
481,60	3969,65
481,81	3986,37
482,01	4006,17
482,21	4108,23
482,41	4173,76
482,62	4274,79
482,82	4399,38
483,02	4399,38
483,23	4340,33
483,43	4451,60
483,63	4319,51
483,83	4349,20
484,04	4466,62
484,24	4420,54
484,44	4365,93
484,64	4410,30
484,85	4415,42
485,05	4345,45
485,25	4383,34
485,45	4362,17
485,66	4424,98
485,86	4342,04
486,06	4393,92
486,26	4504,85
486,47	4558,78
486,67	4866,32
486,87	5046,54
487,07	5219,59
487,28	5247,58
487,48	5282,39
487,68	5368,75
487,88	5278,98
488,09	5242,12
488,29	5075,21
488,49	5020,25
488,69	4975,54
488,90	4921,61
489,10	4866,32
489,30	4883,72
489,50	4971,79
489,71	4959,50
489,91	4968,03
490,11	4972,47
490,31	4953,35
490,52	4891,23
490,72	4821,94
490,92	4932,19
491,12	4867,34
491,32	4981,68
491,53	5072,14
491,73	5259,53
491,93	5579,35
492,13	5851,39
492,33	5996,11
492,54	6054,14
492,74	6054,14
492,94	5869,14
493,14	5757,18
493,35	5592,66
493,55	5307,31
493,75	5253,38
493,95	5127,77
494,15	5100,81
494,36	5125,72
494,56	5121,97
494,76	5313,11
494,96	5447,60
495,16	5654,10
495,37	5819,99
495,57	6155,51
495,77	7593,87
495,97	13709,79
496,17	30325,64
496,37	58095,07
496,58	63308,18
496,78	63518,77
496,98	63702,75
497,18	63239,91
497,38	63344,70
497,59	62984,94
497,79	63628,00
497,99	63284,28
498,19	63460,41
498,39	63108,84
498,59	63590,45
498,80	63310,91
499,00	63351,87
499,20	63526,63
499,40	63655,99
499,60	63460,07
499,80	63374,73
500,01	63415,35
500,21	22294,19
500,41	6138,45
500,61	5941,50
500,81	5657,51
501,01	5619,28
501,22	5495,38
501,42	5539,41
501,62	5617,58
501,82	5560,92
502,02	5762,64
502,22	5664,34
502,42	5823,40
502,63	5869,14
502,83	5870,16
503,03	5858,21
503,23	6046,63
503,43	6038,09
503,63	6079,40
503,83	6191,35
504,04	6077,69
504,24	6051,06
504,44	5950,03
504,64	5950,37
504,84	5838,76
505,04	5814,52
505,24	5775,61
505,44	5760,94
505,65	5774,93
505,85	5724,76
506,05	5576,28
506,25	5516,55
506,45	5470,81
506,65	5576,28
506,85	5693,01
507,05	5827,84
507,26	5865,72
507,46	5952,08
507,66	5994,06
507,86	5886,89
508,06	5996,11
508,26	5949,69
508,46	6091,34
508,66	6372,94
508,86	6460,32
509,06	6665,46
509,27	6629,96
509,47	6618,01
509,67	6530,97
509,87	6500,94
510,07	6390,69
510,27	6359,28
510,47	6283,51
510,67	6205,35
510,87	6256,20
511,07	6192,03
511,28	6145,95
511,48	6127,18
511,68	6230,60
511,88	6296,48
512,08	6321,40
512,28	6430,96
512,48	6609,82
512,68	6801,65
512,88	7365,18
513,08	9392,67
513,28	13587,59
513,48	20827,50
513,68	31643,51
513,89	42852,38
514,09	51096,48
514,29	56058,02
514,49	53848,61
514,69	46897,46
514,89	37048,10
515,09	26553,28
515,29	18809,23
515,49	14075,01
515,69	10894,85
515,89	9222,69
516,09	8145,11
516,29	7531,41
516,49	7260,39
516,69	7195,54
516,89	6944,32
517,09	6927,94
517,29	6897,90
517,50	7040,92
517,70	7136,15
517,90	7217,72
518,10	7199,98
518,30	7282,92
518,50	7183,25
518,70	7032,72
518,90	7032,72
519,10	6958,66
519,30	6811,20
519,50	6849,43
519,70	6914,28
519,90	7026,58
520,10	7121,13
520,30	7099,97
520,50	7032,38
520,70	7074,71
520,90	6982,55
521,10	6858,31
521,30	6912,24
521,50	6900,97
521,70	6836,80
521,90	6896,53
522,10	6891,07
522,30	6775,02
522,50	6864,45
522,70	6899,95
522,90	6972,65
523,10	6993,47
523,30	7142,97
523,50	7001,66
523,70	7187,00
523,90	7055,93
524,10	7114,64
524,30	7185,64
524,50	7335,48
524,70	7518,43
524,90	7551,20
525,10	7628,34
525,30	7487,72
525,50	7478,84
525,70	7498,30
525,90	7496,93
526,10	7373,37
526,30	7431,74
526,50	7503,42
526,70	7467,58
526,90	7463,48
527,10	7500,34
527,30	7508,88
527,50	7479,18
527,70	7378,15
527,90	7364,50
528,10	7275,41
528,30	7265,17
528,50	7296,57
528,70	7230,35
528,90	7167,55
529,10	7401,02
529,30	7440,95
529,50	7456,65
529,70	7541,99
529,90	7769,65
530,10	7703,43
530,29	7760,09
530,49	7731,42
530,69	7558,03
530,89	7583,97
531,09	7544,03
531,29	7484,98
531,49	7573,39
531,69	7526,63
531,89	7683,98
532,09	7731,42
532,29	7664,18
532,49	7514,34
532,69	7707,19
532,89	7603,43
533,09	7555,30
533,29	7710,60
533,49	7662,82
533,68	7719,14
533,88	7927,69
534,08	7798,67
534,28	7852,59
534,48	7795,59
534,68	7871,03
534,88	7878,54
535,08	8010,63
535,28	8043,06
535,48	8192,56
535,68	8149,89
535,88	8158,08
536,08	8250,58
536,27	8264,58
536,47	8096,30
536,67	8355,03
536,87	8222,59
537,07	8319,53
537,27	8388,48
537,47	8379,95
537,67	8414,08
537,87	8506,58
538,07	8607,27
538,27	8474,15
538,46	8557,44
538,66	8445,82
538,86	8315,09
539,06	8281,30
539,26	8399,06
539,46	8227,37
539,66	8228,06
539,86	8318,51
540,06	8396,67
540,25	8446,51
540,45	8745,17
540,65	8721,27
540,85	8854,73
541,05	8929,14
541,25	8611,03
541,45	8540,71
541,65	8557,44
541,85	8529,45
542,04	8734,93
542,24	8806,27
542,44	9010,38
542,64	9200,16
542,84	9214,84
543,04	9310,41
543,24	9431,92
543,43	9480,73
543,63	9375,26
543,83	9301,53
544,03	9238,05
544,23	9309,72
544,43	9154,42
544,63	9353,07
544,82	9427,82
545,02	9345,22
545,22	9484,48
545,42	9399,84
545,62	9414,85
545,82	9231,56
546,02	9239,75
546,21	9111,41
546,41	9225,42
546,61	9106,98
546,81	9291,98
547,01	9239,07
547,21	9496,77
547,40	9636,03
547,60	9800,21
547,80	9726,49
548,00	9938,45
548,20	10340,54
548,40	10570,59
548,59	10933,08
548,79	11133,10
548,99	11123,54
549,19	11232,77
549,39	11492,18
549,59	11538,26
549,78	11527,67
549,98	11860,81
550,18	11976,18
550,38	12098,03
550,58	12368,71
550,77	12722,32
550,97	12706,96
551,17	12856,47
551,37	13225,10
551,57	13358,90
551,76	13527,17
551,96	13916,63
552,16	14393,12
552,36	14733,09
552,56	14947,78
552,75	15188,76
552,95	15262,49
553,15	15591,19
553,35	15734,89
553,55	15736,25
553,74	15990,54
553,94	15770,38
554,14	15932,51
554,34	16066,66
554,54	16260,53
554,73	16363,27
554,93	16328,45
555,13	16534,96
555,33	16560,22
555,53	16432,90
555,72	16416,18
555,92	16482,39
556,12	16956,84
556,32	16837,72
556,51	16894,72
556,71	17136,04
556,91	17052,75
557,11	17303,29
557,30	17586,25
557,50	17656,22
557,70	17777,05
557,90	18164,80
558,10	18422,16
558,29	18389,39
558,49	18798,65
558,69	19027,68
558,89	19272,75
559,08	19884,07
559,28	19973,16
559,48	20183,76
559,68	20454,77
559,87	20712,13
560,07	21108,41
560,27	21187,26
560,47	21459,30
560,66	21658,29
560,86	21618,02
561,06	21718,37
561,25	22141,27
561,45	22480,21
561,65	22720,51
561,85	22528,34
562,04	23107,23
562,24	23520,92
562,44	24186,85
562,64	24726,49
562,83	25517,69
563,03	26344,73
563,23	27284,40
563,42	28211,79
563,62	29022,79
563,82	29770,98
564,02	30590,51
564,21	30830,80
564,41	30939,01
564,61	31264,29
564,80	31932,95
565,00	32427,20
565,20	33573,38
565,40	34744,81
565,59	36372,27
565,79	38225,68
565,99	40474,69
566,18	45916,82
566,38	63282,23
566,58	63460,41
566,78	63479,52
566,97	63294,18
567,17	63211,24
567,37	63572,02
567,56	63244,35
567,76	63212,60
567,96	63589,09
568,15	63473,04
568,35	63355,96
568,55	63214,99
568,74	63459,04
568,94	63426,62
569,14	63510,58
569,33	63521,51
569,53	63539,60
569,73	63504,10
569,92	63154,92
570,12	63380,20
570,32	63481,91
570,52	63540,96
570,71	63476,79
570,91	63161,75
571,11	63540,96
571,30	63474,40
571,50	63472,01
571,70	63204,07
571,89	63327,29
572,09	63392,14
572,28	63590,80
572,48	63684,32
572,68	63665,89
572,87	63475,77
573,07	63382,24
573,27	63254,93
573,46	63294,52
573,66	63566,56
573,86	63395,21
574,05	63464,50
574,25	63618,10
574,45	63607,52
574,64	63292,47
574,84	62963,78
575,04	63439,25
575,23	63410,57
575,43	63368,93
575,62	63360,40
575,82	63360,74
576,02	63653,60
576,21	63454,26
576,41	63549,84
576,61	63394,87
576,80	63426,62
577,00	63588,06
577,19	63620,15
577,39	63369,27
577,59	63431,39
577,78	63263,12
577,98	63401,70
578,18	63425,25
578,37	63470,99
578,57	63311,59
578,76	63280,53
578,96	63493,18
579,16	63486,35
579,35	63384,97
579,55	63580,56
579,74	63394,53
579,94	63674,08
580,14	63094,85
580,33	63433,10
580,53	63537,55
580,72	63475,43
580,92	63350,84
581,12	63584,99
581,31	63428,66
581,51	63333,43
581,70	63431,05
581,90	63491,13
582,10	63353,91
582,29	63407,50
582,49	63406,82
582,68	63498,98
582,88	63481,91
583,07	63256,29
583,27	63271,99
583,47	63061,40
583,66	63436,17
583,86	63540,96
584,05	63321,49
584,25	63418,77
584,44	63377,12
584,64	63234,11
584,84	63658,04
585,03	63349,13
585,23	63562,46
585,42	63560,76
585,62	63549,84
585,81	63534,13
586,01	63397,60
586,20	63456,65
586,40	63323,88
586,60	63099,97
586,79	63398,63
586,99	63336,85
587,18	63283,60
587,38	63686,71
587,57	63568,95
587,77	63436,51
587,96	62937,15
588,16	63191,78
588,35	63186,66
588,55	63030,33
588,75	62848,41
588,94	63041,94
589,14	63295,20
589,33	63411,94
589,53	63068,90
589,72	63413,99
589,92	63436,51
590,11	63312,27
590,31	63223,53
590,50	63095,87
590,70	63189,05
590,89	63283,94
591,09	63290,08
591,28	63019,41
591,48	63495,91
591,67	63234,45
591,87	63589,77
592,06	63380,88
592,26	63473,38
592,45	63380,54
592,65	63219,77
592,84	63579,53
593,04	63523,21
593,23	63448,80
593,43	63563,15
593,62	63310,91
593,82	63397,26
594,01	63614,69
594,21	63249,81
594,40	63441,29
594,60	63633,46
594,79	63432,76
594,99	63206,46
595,18	63555,64
595,38	63288,38
595,57	63426,27
595,77	63286,67
595,96	63156,97
596,16	63336,85
596,35	63391,12
596,55	63288,04
596,74	63217,04
596,94	63441,98
597,13	63362,11
597,33	63504,10
597,52	63299,98
597,72	63514,00
597,91	63247,08
598,11	63514,00
598,30	63387,36
598,50	63413,99
598,69	63516,04
598,88	63463,48
599,08	63397,60
599,27	63434,81
599,47	63596,26
599,66	63261,75
599,86	63403,75
600,05	63410,23
600,25	63373,37
600,44	63279,16
600,64	63134,10
600,83	63433,10
601,02	63302,03
601,22	63283,26
601,41	63204,41
601,61	63423,89
601,80	63308,86
602,00	63304,76
602,19	63406,14
602,38	63486,01
602,58	63477,13
602,77	63361,76
602,97	63625,95
603,16	63399,65
603,36	63362,79
603,55	63234,45
603,74	63424,23
603,94	63506,15
604,13	63295,89
604,33	63327,63
604,52	63493,86
604,72	63435,15
604,91	63470,99
605,10	63500,00
605,30	63437,54
605,49	63284,28
605,69	63196,90
605,88	63261,07
606,07	63176,42
606,27	63162,09
606,46	63269,95
606,66	63327,97
606,85	63504,10
607,04	63491,47
607,24	63446,07
607,43	63134,78
607,63	63465,19
607,82	63364,84
608,01	63411,26
608,21	63399,99
608,40	63240,25
608,60	63338,55
608,79	63396,92
608,98	63352,21
609,18	63154,92
609,37	63119,76
609,57	63333,09
609,76	63087,34
609,95	63415,01
610,15	63259,02
610,34	63253,56
610,53	63521,51
610,73	63341,97
610,92	63381,90
611,11	63455,63
611,31	63174,72
611,50	63479,52
611,70	63138,88
611,89	63356,64
612,08	63270,29
612,28	63396,58
612,47	63191,10
612,66	63463,48
612,86	62940,91
613,05	63178,13
613,24	63157,65
613,44	63352,89
613,63	63281,21
613,82	63132,05
614,02	63250,83
614,21	63340,26
614,41	63387,02
614,60	63050,13
614,79	63373,37
614,99	63140,24
615,18	63315,68
615,37	63131,03
615,57	63356,64
615,76	63425,59
615,95	63326,61
616,15	63279,85
616,34	63129,66
616,53	63234,79
616,73	63228,30
616,92	63284,28
617,11	63280,53
617,30	63340,26
617,50	63284,62
617,69	63025,56
617,88	63092,11
618,08	63094,16
618,27	63318,76
618,46	63323,19
618,66	63420,13
618,85	63465,19
619,04	63175,74
619,24	63007,47
619,43	63134,44
619,62	63368,93
619,82	63284,62
620,01	63384,97
620,20	63482,59
620,39	63359,72
620,59	63097,23
620,78	63182,91
620,97	63122,83
621,17	63242,64
621,36	63211,58
621,55	63306,81
621,74	63319,78
621,94	63596,26
622,13	62886,29
622,32	63350,16
622,52	63309,54
622,71	63199,29
622,90	62977,09
623,09	63303,06
623,29	63380,54
623,48	63305,44
623,67	63440,95
623,86	63107,47
624,06	63538,57
624,25	63269,61
624,44	62981,87
624,64	63172,33
624,83	63424,57
625,02	63299,64
625,21	62965,14
625,41	63317,73
625,60	63239,57
625,79	63621,51
625,98	63401,36
626,18	63280,53
626,37	63066,86
626,56	63329,00
626,75	63343,67
626,95	63244,01
627,14	63362,79
627,33	63316,37
627,52	63372,34
627,72	63277,11
627,91	63173,01
628,10	63312,95
628,29	63154,92
628,49	63213,29
628,68	63035,80
628,87	63299,98
629,06	63070,27
629,25	63293,16
629,45	63243,32
629,64	62991,76
629,83	63187,69
630,02	63410,57
630,22	63081,19
630,41	63429,35
630,60	63159,70
630,79	63250,83
630,98	63322,85
631,18	63491,47
631,37	63558,71
631,56	63342,31
631,75	63130,00
631,94	63392,48
632,14	63374,39
632,33	63495,56
632,52	63524,92
632,71	62889,02
632,90	63290,43
633,10	63264,83
633,29	63284,28
633,48	63316,71
633,67	63228,99
633,86	63111,57
634,06	63363,13
634,25	63246,05
634,44	63030,33
634,63	63244,69
634,82	63352,89
635,02	63339,24
635,21	63408,53
635,40	63416,72
635,59	63409,55
635,78	63216,02
635,97	63263,46
636,17	63282,23
636,36	63157,99
636,55	63182,57
636,74	63163,45
636,93	63238,54
637,12	63183,59
637,32	63239,57
637,51	63383,95
637,70	63064,13
637,89	63327,29
638,08	63474,40
638,27	62941,59
638,47	63231,04
638,66	63204,07
638,85	63450,85
639,04	63296,57
639,23	63128,64
639,42	63182,23
639,62	63081,53
639,81	63120,10
640,00	63074,37
640,19	63173,35
640,38	63244,69
640,57	63129,66
640,76	63047,74
640,95	63290,77
641,15	63468,94
641,34	63080,51
641,53	63293,16
641,72	63039,21
641,91	63156,63
642,10	63446,41
642,29	63072,66
642,49	63394,87
642,68	63403,41
642,87	63291,79
643,06	63240,25
643,25	63216,70
643,44	63375,76
643,63	63232,40
643,82	63280,19
644,01	63322,17
644,21	63295,20
644,40	63046,38
644,59	63322,51
644,78	63250,49
644,97	62894,83
645,16	63105,77
645,35	63223,53
645,54	63305,79
645,73	63262,44
645,92	63147,41
646,12	63269,61
646,31	63378,15
646,50	63229,67
646,69	63155,60
646,88	63410,23
647,07	63174,37
647,26	63296,23
647,45	63285,65
647,64	63134,78
647,83	63296,23
648,02	63173,69
648,22	63135,46
648,41	63373,71
648,60	63291,11
648,79	63310,56
648,98	63009,85
649,17	63282,92
649,36	63573,73
649,55	63331,39
649,74	63035,80
649,93	63355,96
650,12	63188,03
650,31	63120,79
650,50	63160,38
650,69	63082,90
650,88	63108,84
651,08	63386,68
651,27	63000,98
651,46	63023,51
651,65	63402,04
651,84	63420,47
652,03	63298,62
652,22	63354,94
652,41	63421,15
652,60	62945,34
652,79	63038,18
652,98	63222,50
653,17	63300,67
653,36	63195,88
653,55	63193,83
653,74	63104,06
653,93	63267,90
654,12	63353,23
654,31	63422,18
654,50	63204,41
654,69	63039,55
654,88	63188,71
655,07	63429,01
655,26	63377,46
655,45	63420,81
655,64	63491,13
655,83	63329,34
656,02	63122,15
656,21	63461,77
656,40	63445,73
656,59	63131,37
656,78	63395,21
656,97	63352,89
657,17	63100,65
657,36	63350,50
657,55	62928,28
657,74	63217,04
657,93	63193,15
658,12	63212,94
658,31	63238,20
658,50	63344,36
658,69	63451,19
658,87	63112,59
659,06	63231,04
659,25	63256,29
659,44	63438,90
659,63	63061,05
659,82	63199,97
660,01	63138,88
660,20	63273,02
660,39	63038,53
660,58	63330,70
660,77	63270,97
660,96	63191,10
661,15	63185,98
661,34	63256,29
661,53	63275,07
661,72	63195,20
661,91	63367,23
662,10	63305,44
662,29	63529,01
662,48	63393,51
662,67	63401,70
662,86	63368,59
663,05	63344,36
663,24	63102,35
663,43	63274,73
663,62	62939,88
663,81	63377,12
664,00	63095,87
664,19	63460,07
664,38	63234,79
664,57	63381,22
664,76	63211,92
664,94	63388,39
665,13	63345,72
665,32	63496,93
665,51	63290,43
665,70	63473,72
665,89	63242,30
666,08	63202,70
666,27	63423,20
666,46	63188,37
666,65	63152,19
666,84	63591,48
667,03	63399,99
667,22	63432,42
667,41	63060,37
667,60	63317,73
667,78	63249,81
667,97	63132,39
668,16	63099,97
668,35	63369,96
668,54	63258,68
668,73	63303,74
668,92	63294,86
669,11	63386,00
669,30	63330,70
669,49	63312,95
669,68	63063,10
669,86	63352,55
670,05	63321,15
670,24	63401,70
670,43	63261,07
670,62	63117,71
670,81	63363,13
671,00	63321,15
671,19	62989,72
671,38	63326,27
671,57	63297,94
671,75	63431,74
671,94	63207,48
672,13	63184,27
672,32	63466,55
672,51	63351,87
672,70	63152,19
672,89	63314,66
673,08	63445,73
673,26	63350,84
673,45	63411,26
673,64	63301,35
673,83	63374,05
674,02	63430,03
674,21	62877,42
674,40	63098,94
674,59	63126,93
674,77	63107,82
674,96	63021,12
675,15	63164,48
675,34	63291,11
675,53	62895,85
675,72	63276,77
675,91	63111,91
676,09	63095,19
676,28	62793,11
676,47	63280,19
676,66	63469,62
676,85	63073,68
677,04	63205,09
677,22	63113,96
677,41	63323,54
677,60	63163,11
677,79	63378,83
677,98	63275,41
678,17	63492,49
678,36	63255,61
678,54	63516,04
678,73	63164,48
678,92	63521,85
679,11	63083,58
679,30	63346,06
679,48	63299,64
679,67	63294,52
679,86	63317,05
680,05	63086,65
680,24	63477,82
680,43	63295,89
680,61	63430,37
680,80	63475,77
680,99	63432,76
681,18	63349,48
681,37	63231,04
681,55	62968,90
681,74	63018,39
681,93	63307,15
682,12	63518,43
682,31	63408,53
682,49	63274,04
682,68	63022,82
682,87	63339,92
683,06	63403,41
683,25	63204,75
683,43	63150,14
683,62	63348,79
683,81	63048,08
684,00	62951,49
684,19	63247,76
684,37	63351,18
684,56	63392,14
684,75	63002,00
684,94	63350,84
685,12	63000,64
685,31	63263,80
685,50	63204,07
685,69	63317,73
685,88	63330,36
686,06	63297,25
686,25	63329,00
686,44	63291,45
686,63	63367,23
686,81	63155,60
687,00	63364,15
687,19	63297,59
687,38	63180,86
687,56	63475,08
687,75	63176,08
687,94	63415,01
688,13	63466,89
688,31	63389,75
688,50	63445,73
688,69	63323,54
688,88	63199,97
689,06	63166,52
689,25	63301,01
689,44	63500,68
689,63	63345,72
689,81	63530,72
690,00	63439,59
690,19	63293,16
690,38	63298,28
690,56	63375,76
690,75	63023,17
690,94	63299,64
691,13	63407,16
691,31	63254,25
691,50	63401,02
691,69	63218,41
691,87	63494,20
692,06	63193,83
692,25	63283,94
692,44	63461,77
692,62	63387,02
692,81	62825,20
693,00	63276,77
693,18	63393,17
693,37	63078,46
693,56	63530,04
693,75	63469,62
693,93	63137,51
694,12	63161,40
694,31	63273,02
694,49	63530,38
694,68	63353,91
694,87	63314,32
695,05	63323,54
695,24	63341,97
695,43	63433,78
695,62	63478,16
695,80	63412,62
695,99	63024,53
696,18	63347,77
696,36	63036,48
696,55	63351,52
696,74	63560,42
696,92	63083,24
697,11	63213,29
697,30	63116,01
697,48	63326,95
697,67	63363,81
697,86	63319,10
698,04	63544,72
698,23	63335,48
698,42	63225,92
698,60	63356,64
698,79	63284,28
698,98	63212,26
699,16	63386,34
699,35	63388,39
699,54	63160,04
699,72	63353,57
699,91	62986,99
700,10	63339,58
700,28	63281,89
700,47	62923,84
700,66	63310,56
700,84	63345,72
701,03	63468,26
701,21	63231,72
701,40	63402,04
701,59	63205,44
701,77	63364,84
701,96	63358,35
702,15	63204,75
702,33	63291,45
702,52	63425,93
702,71	63132,05
702,89	63364,49
703,08	63279,16
703,26	63140,92
703,45	63067,54
703,64	63178,47
703,82	63072,32
704,01	63378,15
704,20	45605,87
704,38	10146,66
704,57	3150,46
704,75	3795,91
704,94	6204,66
705,13	13329,20
705,31	25778,12
705,50	40522,13
705,68	51641,58
705,87	58193,03
706,06	58587,61
706,24	52784,35
706,43	40035,40
706,61	28237,39
706,80	19791,91
706,99	14837,19
707,17	11487,74
707,36	9023,01
707,54	7249,81
707,73	6124,45
707,92	5251,67
708,10	4598,03
708,29	4001,39
708,47	3574,05
708,66	3158,31
708,84	3028,26
709,03	2904,02
709,22	2802,99
709,40	2767,49
709,59	2786,60
709,77	2884,22
709,96	2868,18
710,14	2883,20
710,33	2831,32
710,52	2747,01
710,70	2788,65
710,89	2736,09
711,07	2781,82
711,26	2773,97
711,44	2830,29
711,63	2813,57
711,81	2854,19
712,00	2809,81
712,19	2759,30
712,37	2729,60
712,56	2760,66
712,74	2681,47
712,93	2996,52
713,11	3642,65
713,30	4871,43
713,48	6452,13
713,67	7815,05
713,85	8407,94
714,04	8582,01
714,22	7870,00
714,41	6585,93
714,59	5209,01
714,78	4508,60
714,97	3989,10
715,15	3701,02
715,34	3348,09
715,52	3188,69
715,71	3101,31
715,89	2956,24
716,08	2956,93
716,26	2948,39
716,45	2893,44
716,63	2902,65
716,82	2882,17
717,00	2902,65
717,19	2902,65
717,37	2923,82
717,56	2843,26
717,74	2816,98
717,93	2923,82
718,11	2757,25
718,30	2767,49
718,48	2799,57
718,67	2704,34
718,85	2785,58
719,04	2702,64
719,22	2778,75
719,41	2823,81
719,59	2845,65
719,78	2834,05
719,96	2851,11
720,15	2909,82
720,33	2891,73
720,52	2750,42
720,70	2690,35
720,88	2688,30
721,07	2641,88
721,25	2584,54
721,44	2546,99
721,62	2511,15
721,81	2474,63
721,99	2487,94
722,18	2495,11
722,36	2463,71
722,55	2535,73
722,73	2462,00
722,92	2543,24
723,10	2500,57
723,28	2499,89
723,47	2491,70
723,65	2473,60
723,84	2465,75
724,02	2463,02
724,21	2493,40
724,39	2518,66
724,58	2384,86
724,76	2424,45
724,94	2415,92
725,13	2418,65
725,31	2629,25
725,50	3278,80
725,68	5310,72
725,87	9004,58
726,05	13542,19
726,23	18002,67
726,42	20678,00
726,60	21305,36
726,79	19319,17
726,97	15728,74
727,16	11328,34
727,34	8755,75
727,52	6881,17
727,71	5636,69
727,89	4860,85
728,08	4262,85
728,26	3807,86
728,44	3500,66
728,63	3157,97
728,81	2913,58
729,00	2797,18
729,18	2657,24
729,36	2483,50
729,55	2418,65
729,73	2433,67
729,92	2520,71
730,10	2558,25
730,28	2628,57
730,47	2607,06
730,65	2653,14
730,84	2622,08
731,02	2573,96
731,20	2532,31
731,39	2501,25
731,57	2420,70
731,75	2473,26
731,94	2387,59
732,12	2326,15
732,31	2311,82
732,49	2279,39
732,67	2296,11
732,86	2225,46
733,04	2233,31
733,22	2260,96
733,41	2232,63
733,59	2273,59
733,78	2325,47
733,96	2413,87
734,14	2611,84
734,33	2781,48
734,51	2900,27
734,69	2949,76
734,88	2950,10
735,06	2763,39
735,24	2704,34
735,43	2651,78
735,61	2718,68
735,79	3002,32
735,98	3300,98
736,16	3655,62
736,34	4035,52
736,53	5654,44
736,71	11622,22
736,89	25818,06
737,08	46979,04
737,26	63305,44
737,44	63390,09
737,63	63298,62
737,81	63511,27
737,99	63163,45
738,18	63196,56
738,36	55042,57
738,54	29723,19
738,73	21422,78
738,91	16409,01
739,09	12904,25
739,28	9965,76
739,46	7957,04
739,64	6375,33
739,82	5120,95
740,01	4207,89
740,19	3614,66
740,37	3056,93
740,56	2774,66
740,74	2591,02
740,92	2463,02
741,11	2424,45
741,29	2327,86
741,47	2361,99
741,65	2360,63
741,84	2370,18
742,02	2356,19
742,20	2346,63
742,39	2428,89
742,57	2519,68
742,75	2495,11
742,93	2473,60
743,12	2393,39
743,30	2343,56
743,48	2337,41
743,67	2254,13
743,85	2166,41
744,03	2281,10
744,21	2246,96
744,40	2158,90
744,58	2199,86
744,76	2249,69
744,94	2196,79
745,13	2230,58
745,31	2241,84
745,49	2270,86
745,67	2233,65
745,86	2312,50
746,04	2382,47
746,22	2395,10
746,40	2383,49
746,59	2467,46
746,77	2446,64
746,95	2514,22
747,13	2512,86
747,32	2556,55
747,50	2593,75
747,68	2580,44
747,86	2548,70
748,05	2631,64
748,23	2642,90
748,41	3018,71
748,59	4883,38
748,77	10987,01
748,96	23587,14
749,14	41466,59
749,32	58621,74
749,50	63219,43
749,69	63214,65
749,87	63174,03
750,05	63283,26
750,23	63498,98
750,41	63424,57
750,60	63207,48
750,78	63473,04
750,96	63278,82
751,14	63242,30
751,32	58371,89
751,51	34211,32
751,69	24087,53
751,87	18030,66
752,05	13877,72
752,23	10646,71
752,42	8192,56
752,60	6621,42
752,78	5391,62
752,96	4523,96
753,14	3829,70
753,33	3314,64
753,51	2877,40
753,69	2641,54
753,87	2506,03
754,05	2462,34
754,23	2298,16
754,42	2291,68
754,60	2323,08
754,78	2218,29
754,96	2262,32
755,14	2256,86
755,32	2209,76
755,51	2216,93
755,69	2203,61
755,87	2245,94
756,05	2253,79
756,23	2239,11
756,41	2222,05
756,60	2188,60
756,78	2238,09
756,96	2214,88
757,14	2284,51
757,32	2177,67
757,50	2224,44
757,68	2225,12
757,87	2214,88
758,05	2222,39
758,23	2198,15
758,41	2194,06
758,59	2165,73
758,77	2239,11
758,95	2193,72
759,14	2214,88
759,32	2242,53
759,50	2447,32
759,68	2493,74
759,86	2638,47
760,04	2848,38
760,22	2921,43
760,40	2904,02
760,59	2971,94
760,77	2860,33
760,95	2897,19
761,13	2885,93
761,31	3030,99
761,49	4008,56
761,67	9652,76
761,85	32076,65
762,03	63396,24
762,22	63131,71
762,40	63294,18
762,58	63465,87
762,76	63367,57
762,94	63382,93
763,12	63333,77
763,30	63188,03
763,48	63339,58
763,66	63502,73
763,84	63532,09
764,02	63438,22
764,21	63455,29
764,39	62936,47
764,57	63383,61
764,75	63453,24
764,93	63240,93
765,11	63415,35
765,29	63338,89
765,47	63386,68
765,65	63345,72
765,83	63422,18
766,01	63336,51
766,19	63291,45
766,37	62926,57
766,56	63250,49
766,74	63447,78
766,92	63404,77
767,10	63475,43
767,28	63312,95
767,46	63328,31
767,64	63437,20
767,82	63240,93
768,00	63430,71
768,18	63478,16
768,36	63242,64
768,54	63051,16
768,72	63119,08
768,90	63500,34
769,08	63567,24
769,26	63250,83
769,44	63374,05
769,62	63345,38
769,80	63217,72
769,98	63251,51
770,16	63480,55
770,34	27659,52
770,52	10122,43
770,71	13379,38
770,89	26878,57
771,07	53094,61
771,25	63349,48
771,43	63133,07
771,61	63179,49
771,79	63365,86
771,97	63345,04
772,15	63302,37
772,33	63328,31
772,51	63058,32
772,69	63519,12
772,87	63260,39
773,05	63332,75
773,23	40496,88
773,41	11367,59
773,59	9216,88
773,77	7533,79
773,95	6391,37
774,13	5204,23
774,31	4352,27
774,49	3582,58
774,67	3036,11
774,85	2653,48
775,03	2352,43
775,21	2297,14
775,39	2171,53
775,57	2074,25
775,75	2054,45
775,93	2031,58
776,10	2051,04
776,28	2000,52
776,46	2028,85
776,64	1932,60
776,82	2003,25
777,00	1279,64
777,18	1919,97
777,36	1962,64
777,54	1978,34
777,72	1884,81
777,90	1894,37
778,08	1888,91
778,26	1908,71
778,44	1931,23
778,62	2051,72
778,80	2135,35
778,98	2187,91
779,16	2251,74
779,34	2315,57
779,52	2343,56
779,70	2309,08
779,88	2234,33
780,05	2155,49
780,23	2133,64
780,41	2139,79
780,59	2113,85
780,77	2097,12
780,95	2015,88
781,13	1939,77
781,31	1929,53
781,49	1872,87
781,67	1901,88
781,85	1922,70
782,03	1868,43
782,21	1884,47
782,39	1847,61
782,56	1921,68
782,74	1911,44
782,92	1907,34
783,10	1883,79
783,28	1884,13
783,46	1919,63
783,64	1945,91
783,82	1952,06
784,00	1965,71
784,18	2000,87
784,35	2062,99
784,53	2085,86
784,71	2160,27
784,89	2183,13
785,07	2178,01
785,25	2184,16
785,43	2251,40
785,61	2109,07
785,79	2122,38
785,96	2119,99
786,14	2086,88
786,32	2037,05
786,50	2112,82
786,68	1995,40
786,86	1997,11
787,04	1997,79
787,22	1985,51
787,39	1954,10
787,57	1945,57
787,75	1991,99
787,93	2060,26
788,11	2147,64
788,29	2138,76
788,47	2151,73
788,65	2130,91
788,82	2111,46
789,00	2081,08
789,18	1990,63
789,36	1936,70
789,54	1936,70
789,72	1955,47
789,89	2037,39
790,07	2096,10
790,25	2076,98
790,43	2052,75
790,61	2084,49
790,79	2046,94
790,96	2105,99
791,14	2068,11
791,32	2137,74
791,50	2183,48
791,68	2176,99
791,86	2175,63
792,03	2148,32
792,21	2135,69
792,39	2150,03
792,57	2154,12
792,75	2163,34
792,93	2619,69
793,10	4097,64
793,28	10292,41
793,46	23504,54
793,64	43389,97
793,82	62583,54
793,99	63292,47
794,17	63635,85
794,35	63343,67
794,53	61018,20
794,71	42155,05
794,88	27529,14
795,06	20724,08
795,24	15931,83
795,42	13136,70
795,60	10664,46
795,77	8967,03
795,95	7517,07
796,13	6504,69
796,31	5566,72
796,49	4987,49
796,66	4324,29
796,84	3841,31
797,02	3383,24
797,20	3067,52
797,37	2847,02
797,55	2675,33
797,73	2582,49
797,91	2582,83
798,08	2544,26
798,26	2599,90
798,44	2597,51
798,62	2657,58
798,80	2963,41
798,97	4450,24
799,15	8827,77
799,33	17141,50
799,51	28351,74
799,68	38286,78
799,86	46814,18
800,04	55272,29
800,22	63351,87
800,39	63540,28
800,57	63193,49
800,75	63256,29
800,93	63326,27
801,10	63311,25
801,28	62692,42
801,46	39463,68
801,63	26737,26
801,81	21212,52
801,99	17049,34
802,17	14390,74
802,34	12022,94
802,52	10134,37
802,70	8570,41
802,88	7345,72
803,05	6325,49
803,23	5482,07
803,41	4837,64
803,58	4316,09
803,76	3831,41
803,94	3415,67
804,12	3249,44
804,29	3167,52
804,47	2985,26
804,65	2954,54
804,82	2878,42
805,00	2870,57
805,18	2840,87
805,35	2841,56
805,53	2871,93
805,71	2881,83
805,89	2896,51
806,06	2895,83
806,24	2951,81
806,42	3128,27
806,59	3058,30
806,77	3167,87
806,95	3207,46
807,12	3257,64
807,30	3360,72
807,48	3375,05
807,65	3570,97
807,83	3627,98
808,01	3795,57
808,18	4069,66
808,36	4324,97
808,54	4931,85
808,71	7670,67
808,89	16671,83
809,07	33425,92
809,24	56984,73
809,42	63106,79
809,60	63538,57
809,77	63349,82
809,95	63278,14
810,13	63422,86
810,30	63377,81
810,48	63245,71
810,66	63383,27
810,83	63264,14
811,01	63367,91
811,18	63427,98
811,36	63677,49
811,54	63406,48
811,71	63314,66
811,89	63317,39
812,07	63492,49
812,24	63033,41
812,42	63492,49
812,59	63406,14
812,77	63331,04
812,95	63305,79
813,12	63364,15
813,30	63530,38
813,48	63459,38
813,65	63323,88
813,83	63278,14
814,00	63270,63
814,18	63170,62
814,36	63450,51
814,53	63393,17
814,71	63443,68
814,88	63236,50
815,06	63529,01
815,24	63296,57
815,41	63566,56
815,59	62225,48
815,76	17748,38
815,94	17490,34
816,12	19733,54
816,29	23712,06
816,47	50952,44
816,64	63253,56
816,82	63500,00
817,00	63134,44
817,17	63358,69
817,35	63080,51
817,52	63372,69
817,70	63253,90
817,87	63155,60
818,05	63375,76
818,23	63364,84
818,40	63077,44
818,58	63247,76
818,75	63371,32
818,93	63351,87
819,10	63208,85
819,28	63463,14
819,46	63230,35
819,63	63413,99
819,81	63099,62
819,98	63610,25
820,16	63236,50
820,33	63584,31
820,51	63029,99
820,68	63343,67
820,86	63306,81
821,03	63167,89
821,21	63246,74
821,39	62988,69
821,56	63373,03
821,74	63562,12
821,91	63521,51
822,09	63434,47
822,26	63434,47
822,44	63551,88
822,61	63529,01
822,79	63256,98
822,96	63458,70
823,14	63514,00
823,31	63544,37
823,49	63209,19
823,66	63344,01
823,84	63473,38
824,01	63446,75
824,19	63678,86
824,36	63382,93
824,54	63337,19
824,71	63123,86
824,89	63301,69
825,06	63134,78
825,24	63425,59
825,41	63254,59
825,59	63359,03
825,76	63294,18
825,94	63463,14
826,11	63159,01
826,29	63493,18
826,46	63351,18
826,64	63193,49
826,81	63240,93
826,99	63429,01
827,16	63531,75
827,34	63603,77
827,51	63440,95
827,69	63060,37
827,86	63351,52
828,04	63380,88
828,21	63395,56
828,39	63294,52
828,56	63440,95
828,74	63319,78
828,91	63357,33
829,09	62950,46
829,26	63513,65
829,43	63268,24
829,61	63390,44
829,78	63464,16
829,96	63387,70
830,13	63530,72
830,31	63271,99
830,48	63375,76
830,66	63519,80
830,83	63592,16
831,01	63515,36
831,18	63439,93
831,35	63447,44
831,53	63350,84
831,70	63208,85
831,88	63032,38
832,05	63358,01
832,23	63514,68
832,40	63264,83
832,57	63284,62
832,75	63482,25
832,92	63296,91
833,10	63070,95
833,27	63334,46
833,45	63471,33
833,62	63468,60
833,79	63281,21
833,97	63519,80
834,14	63384,97
834,32	63309,88
834,49	63502,05
834,66	63486,35
834,84	63569,63
835,01	63282,58
835,19	63530,38
835,36	63532,09
835,53	63162,09
835,71	63405,80
835,88	63276,43
836,06	63284,28
836,23	63197,58
836,40	63550,86
836,58	63498,98
836,75	63426,27
836,93	63498,30
837,10	63429,35
837,27	63358,35
837,45	63365,52
837,62	63586,02
837,79	63571,00
837,97	63240,25
838,14	63518,43
838,32	63426,96
838,49	63542,33
838,66	63312,27
838,84	63302,03
839,01	63265,85
839,18	63329,34
839,36	63507,85
839,53	63524,24
839,70	63325,92
839,88	63497,95
840,05	63256,98
840,23	63439,25
840,40	63518,09
840,57	63417,74
840,75	63384,63
840,92	63150,48
841,09	63344,01
841,27	63294,18
841,44	63413,30
841,61	63247,76
841,79	63386,34
841,96	63430,37
842,13	63583,97
842,31	63392,48
842,48	63434,47
842,65	63561,78
842,83	63398,97
843,00	63376,78
843,17	63500,34
843,35	63293,84
843,52	63481,91
843,69	63301,69
843,86	63507,51
844,04	63492,15
844,21	63467,58
844,38	63265,85
844,56	63421,84
844,73	63342,99
844,90	63289,40
845,08	63404,09
845,25	63427,98
845,42	63366,88
845,60	63346,40
845,77	63432,76
845,94	63540,28
846,11	63420,81
846,29	63180,86
846,46	63452,90
846,63	63482,25
846,81	63289,74
846,98	63417,40
847,15	63398,29
847,32	63394,19
847,50	63617,08
847,67	63473,04
847,84	63400,33
848,01	63340,94
848,19	63392,48
848,36	63400,33
848,53	63570,66
848,71	63270,29
848,88	63512,63
849,05	63625,61
849,22	63464,84
849,40	35284,79
849,57	54581,78
849,74	1580,01
849,91	1546,56
850,09	1641,45
850,26	1745,55
850,43	2219,66
850,60	3063,42
850,78	4875,53
850,95	7504,44
851,12	10950,49
851,29	14429,65
851,47	16957,86
851,64	17481,46
851,81	16861,95
851,98	14735,48
852,15	12012,36
852,33	9366,73
852,50	7782,62
852,67	6747,37
852,84	6047,31
853,02	5364,65
853,19	4872,12
853,36	4291,52
853,53	3806,83
853,70	3263,10
853,88	3112,23
854,05	2687,96
854,22	2424,80
854,39	2248,67
854,56	2087,90
854,74	1877,99
854,91	1663,63
855,08	1539,73
855,25	1438,02
855,42	1324,35
855,60	1265,64
855,77	1176,90
855,94	1140,38
856,11	1169,05
856,28	1148,23
856,46	1071,43
856,63	1107,61
856,80	1040,71
856,97	1051,97
857,14	1041,05
857,31	1112,39
857,49	1055,05
857,66	1007,26
857,83	1028,08
858,00	951,28
858,17	1044,12
858,34	1019,89
858,52	990,53
858,69	991,90
858,86	1045,15
859,03	1045,49
859,20	1028,08
859,37	1011,01
859,55	1006,58
859,72	978,93
859,89	977,22
860,06	1001,12
860,23	982,00
860,40	961,52
860,57	892,91
860,75	921,59
860,92	955,38
861,09	925,00
861,26	867,31
861,43	915,10
861,60	876,53
861,77	862,19
861,95	805,53
862,12	798,03
862,29	752,29
862,46	799,39
862,63	809,97
862,80	784,37
862,97	775,16
863,14	742,05
863,31	781,98
863,49	765,26
863,66	755,70
863,83	742,39
864,00	818,50
864,17	773,11
864,34	797,00
864,51	857,07
864,68	836,25
864,85	874,14
865,02	888,48
865,20	936,95
865,37	1028,08
865,54	1264,96
865,71	1619,60
865,88	2133,64
866,05	2591,36
866,22	2980,14
866,39	3137,49
866,56	2979,45
866,73	2742,91
866,90	2469,51
867,07	2130,57
867,25	1904,61
867,42	1709,37
867,59	1565,33
867,76	1477,61
867,93	1363,26
868,10	1251,99
868,27	1252,67
868,44	1114,10
868,61	1069,38
868,78	1023,30
868,95	911,35
869,12	911,69
869,29	908,96
869,46	818,85
869,63	841,37
869,80	786,42
869,97	761,84
870,14	710,99
870,32	697,67
870,49	704,16
870,66	669,34
870,83	672,76
871,00	726,35
871,17	683,68
871,34	669,00
871,51	660,81
871,68	664,57
871,85	731,47
872,02	669,34
872,19	743,41
872,36	725,32
872,53	768,33
872,70	709,96
872,87	746,14
873,04	765,26
873,21	752,29
873,38	775,84
873,55	737,95
873,72	743,41
873,89	749,22
874,06	791,20
874,23	758,43
874,40	736,93
874,57	750,92
874,74	680,61
874,91	665,25
875,08	676,17
875,25	603,81
875,42	629,75
875,59	682,31
875,76	673,44
875,93	637,94
876,10	656,37
876,27	626,34
876,44	673,44
876,61	639,99
876,78	590,84
876,95	641,01
877,12	637,26
877,29	569,34
877,46	615,07
877,62	658,42
877,79	666,61
877,96	603,81
878,13	612,00
878,30	628,73
878,47	653,64
878,64	609,95
878,81	653,64
878,98	618,49
879,15	603,81
879,32	615,41
879,49	653,98
879,66	595,96
879,83	595,28
880,00	605,17
880,17	608,59
880,34	621,22
880,51	588,45
880,67	599,03
880,84	545,78
881,01	643,40
881,18	573,43
881,35	575,82
881,52	646,82
881,69	572,07
881,86	555,00
882,03	533,50
882,20	542,71
882,37	590,16
882,54	601,08
882,70	529,74
882,87	556,36
883,04	573,43
883,21	572,75
883,38	546,81
883,55	606,54
883,72	580,60
883,89	570,02
884,06	545,78
884,23	508,92
884,39	547,49
884,56	561,14
884,73	569,34
884,90	577,87
885,07	519,50
885,24	588,45
885,41	548,17
885,58	543,39
885,74	491,17
885,91	530,08
886,08	551,59
886,25	535,89
886,42	501,07
886,59	567,29
886,76	550,56
886,93	519,50
887,09	545,78
887,26	574,11
887,43	521,21
887,60	541,35
887,77	481,61
887,94	528,38
888,10	534,52
888,27	562,17
888,44	499,02
888,61	499,02
888,78	504,14
888,95	587,77
889,12	541,01
889,28	542,37
889,45	513,02
889,62	441,00
889,79	503,46
889,96	536,57
890,13	455,33
890,29	533,84
890,46	534,52
890,63	569,34
890,80	530,08
890,97	541,01
891,13	445,77
891,30	525,65
891,47	480,25
891,64	484,34
891,81	486,73
891,98	462,16
892,14	471,03
892,31	465,23
892,48	485,03
892,65	498,68
892,82	518,14
892,98	500,05
893,15	479,22
893,32	508,24
>>>>>End Processed Spectral Data<<<<<
