SpectraSuite Datei
++++++++++++++++++++++++++++++++++++
Datum: Mon Mar 05 10:50:14 CET 2018
Benutzer: Admin
Dark-Spektrum vorhanden: Ja
Referenz-Spektrum vorhanden: Ja
Zahl der probierten Teilspektren: 1
Spektrometer: USB4F05832
Integrationszeit (usec): 3800 (USB4F05832)
Spektren Durchschnitt berechnet: 570 (USB4F05832)
Boxcar Glâ€°ttung: 0 (USB4F05832)
Dunkelstromkorrektur: Nein (USB4F05832)
Puls/Lampe aktiviert: Nein (USB4F05832)
Correct for Detector Non-linearity: Nein (USB4F05832)
Streulichtkorrektur: Nein (USB4F05832)
Anzahl Pixel in verarbeitetem Spektrum: 3648
>>>>>Begin Processed Spectral Data<<<<<
177,54	0,25
177,75	0,25
177,97	0,25
178,19	0,15
178,41	3,58
178,63	2,14
178,85	2,32
179,07	5,93
179,29	-0,47
179,51	6,08
179,73	-0,75
179,95	-1,33
180,17	3,97
180,39	2,22
180,61	-0,06
180,83	3,38
181,05	2,95
181,27	-2,02
181,49	2,54
181,71	-2,97
181,92	2,08
182,14	2,94
182,36	1,95
182,58	3,16
182,80	0,43
183,02	2,23
183,24	-2,62
183,46	1,15
183,68	3,10
183,90	-1,58
184,12	4,73
184,34	0,57
184,56	0,87
184,78	3,19
185,00	3,18
185,21	-2,49
185,43	4,52
185,65	-3,87
185,87	4,01
186,09	0,19
186,31	0,43
186,53	2,66
186,75	-0,57
186,97	2,69
187,19	-1,85
187,41	-1,01
187,63	1,47
187,84	3,20
188,06	1,39
188,28	0,76
188,50	-3,13
188,72	3,14
188,94	5,14
189,16	-0,96
189,38	2,09
189,60	-0,49
189,82	2,21
190,03	0,63
190,25	0,92
190,47	7,10
190,69	1,74
190,91	4,08
191,13	5,25
191,35	1,76
191,57	0,25
191,79	1,35
192,01	1,07
192,22	4,76
192,44	0,72
192,66	0,68
192,88	-1,22
193,10	3,15
193,32	6,49
193,54	2,99
193,76	0,27
193,98	-1,60
194,19	1,26
194,41	3,26
194,63	-1,57
194,85	1,97
195,07	1,09
195,29	3,50
195,51	0,99
195,73	0,93
195,94	3,27
196,16	0,25
196,38	1,41
196,60	-2,11
196,82	2,37
197,04	0,46
197,26	-0,09
197,48	2,32
197,69	0,55
197,91	-0,40
198,13	1,03
198,35	0,92
198,57	-0,86
198,79	2,16
199,01	0,62
199,22	1,16
199,44	2,37
199,66	4,40
199,88	0,92
200,10	2,57
200,32	5,86
200,54	0,86
200,75	4,03
200,97	0,35
201,19	5,11
201,41	2,06
201,63	-2,53
201,85	2,00
202,06	1,49
202,28	2,54
202,50	0,45
202,72	3,30
202,94	0,99
203,16	3,14
203,38	2,76
203,59	-1,70
203,81	3,74
204,03	4,41
204,25	-1,46
204,47	-0,37
204,69	0,18
204,90	2,41
205,12	1,32
205,34	4,17
205,56	0,76
205,78	2,17
206,00	1,72
206,21	-1,28
206,43	4,67
206,65	2,22
206,87	3,32
207,09	2,68
207,30	0,45
207,52	2,08
207,74	3,33
207,96	3,56
208,18	1,99
208,40	3,83
208,61	2,01
208,83	1,58
209,05	0,44
209,27	1,78
209,49	1,71
209,70	3,56
209,92	2,34
210,14	2,68
210,36	2,73
210,58	3,10
210,79	-0,49
211,01	2,00
211,23	0,80
211,45	1,49
211,67	-1,63
211,88	0,26
212,10	-1,18
212,32	2,14
212,54	1,09
212,76	6,31
212,97	-0,93
213,19	2,33
213,41	0,79
213,63	4,46
213,85	2,72
214,06	0,52
214,28	-1,24
214,50	-0,32
214,72	5,16
214,94	-1,26
215,15	4,25
215,37	4,18
215,59	3,15
215,81	5,50
216,02	0,26
216,24	2,36
216,46	0,23
216,68	2,61
216,90	4,71
217,11	0,46
217,33	2,14
217,55	5,72
217,77	3,95
217,98	2,92
218,20	-4,70
218,42	1,47
218,64	1,53
218,85	1,92
219,07	3,01
219,29	1,89
219,51	0,10
219,73	-0,78
219,94	-0,62
220,16	0,68
220,38	4,00
220,60	-1,39
220,81	4,02
221,03	-2,75
221,25	1,21
221,47	-0,76
221,68	1,30
221,90	0,98
222,12	1,01
222,34	3,83
222,55	-2,63
222,77	3,69
222,99	1,03
223,21	2,20
223,42	5,27
223,64	2,96
223,86	2,22
224,08	4,29
224,29	2,03
224,51	3,57
224,73	6,01
224,94	1,43
225,16	1,71
225,38	0,33
225,60	2,73
225,81	2,02
226,03	-1,66
226,25	2,35
226,47	2,76
226,68	0,18
226,90	1,35
227,12	-0,27
227,33	2,09
227,55	6,26
227,77	1,72
227,99	3,20
228,20	-0,28
228,42	4,15
228,64	1,63
228,86	2,31
229,07	-2,00
229,29	1,53
229,51	-1,83
229,72	3,67
229,94	3,38
230,16	3,59
230,38	3,78
230,59	3,43
230,81	0,34
231,03	-0,68
231,24	2,07
231,46	0,85
231,68	-0,07
231,89	-0,07
232,11	4,37
232,33	5,33
232,55	2,69
232,76	0,67
232,98	0,28
233,20	1,28
233,41	1,45
233,63	3,00
233,85	3,02
234,06	4,05
234,28	2,00
234,50	2,16
234,71	3,51
234,93	6,46
235,15	2,35
235,37	2,08
235,58	0,03
235,80	2,64
236,02	2,74
236,23	2,14
236,45	1,78
236,67	4,62
236,88	3,20
237,10	-0,06
237,32	-1,19
237,53	2,85
237,75	-0,37
237,97	5,36
238,18	2,82
238,40	0,27
238,62	-1,43
238,83	0,58
239,05	3,73
239,27	1,26
239,48	5,32
239,70	3,95
239,92	0,46
240,13	0,98
240,35	4,54
240,57	1,51
240,78	3,00
241,00	0,51
241,22	3,46
241,43	-0,77
241,65	-1,53
241,87	-1,36
242,08	2,92
242,30	3,14
242,52	3,14
242,73	-2,46
242,95	1,73
243,16	2,26
243,38	7,41
243,60	4,19
243,81	0,70
244,03	-0,04
244,25	-0,55
244,46	0,36
244,68	4,61
244,90	3,56
245,11	6,42
245,33	5,34
245,55	-2,01
245,76	1,83
245,98	0,13
246,19	-0,31
246,41	3,84
246,63	3,98
246,84	4,30
247,06	0,01
247,28	-0,36
247,49	3,69
247,71	1,21
247,92	1,32
248,14	3,20
248,36	1,63
248,57	2,82
248,79	6,94
249,01	4,13
249,22	4,88
249,44	3,49
249,65	0,38
249,87	2,18
250,09	4,10
250,30	0,49
250,52	5,03
250,73	0,04
250,95	0,03
251,17	2,29
251,38	1,94
251,60	1,52
251,81	0,38
252,03	2,86
252,25	4,10
252,46	0,10
252,68	1,12
252,89	1,54
253,11	0,22
253,33	4,10
253,54	5,01
253,76	0,68
253,97	4,46
254,19	-0,23
254,41	0,74
254,62	1,55
254,84	-2,69
255,05	0,94
255,27	2,63
255,49	2,02
255,70	-0,22
255,92	5,37
256,13	-0,11
256,35	-0,33
256,56	0,67
256,78	1,53
257,00	-0,20
257,21	2,74
257,43	0,96
257,64	4,34
257,86	3,57
258,08	5,40
258,29	2,16
258,51	3,93
258,72	3,53
258,94	1,74
259,15	3,30
259,37	-0,04
259,59	-0,03
259,80	3,32
260,02	1,63
260,23	0,11
260,45	0,42
260,66	4,36
260,88	-3,69
261,09	2,06
261,31	5,25
261,53	2,95
261,74	3,83
261,96	3,29
262,17	1,25
262,39	-0,72
262,60	2,51
262,82	0,90
263,03	0,34
263,25	-0,22
263,46	3,73
263,68	1,31
263,90	0,92
264,11	4,09
264,33	6,41
264,54	5,23
264,76	3,50
264,97	6,65
265,19	2,39
265,40	1,15
265,62	1,40
265,83	3,25
266,05	-0,10
266,26	0,89
266,48	0,85
266,70	-0,64
266,91	0,55
267,13	0,08
267,34	1,35
267,56	-0,25
267,77	1,14
267,99	2,54
268,20	3,88
268,42	-1,10
268,63	2,48
268,85	-0,93
269,06	3,77
269,28	5,54
269,49	1,45
269,71	1,24
269,92	1,47
270,14	5,99
270,35	-2,20
270,57	4,76
270,78	3,59
271,00	2,55
271,21	2,64
271,43	2,00
271,64	-0,95
271,86	4,19
272,07	-0,42
272,29	0,22
272,50	0,72
272,72	4,49
272,93	5,02
273,15	-1,05
273,36	0,45
273,58	6,14
273,79	3,87
274,01	4,18
274,22	-2,45
274,44	3,51
274,65	4,67
274,87	2,46
275,08	2,91
275,30	1,71
275,51	1,71
275,73	-1,91
275,94	4,11
276,16	-0,81
276,37	0,77
276,59	3,15
276,80	0,98
277,02	6,45
277,23	2,97
277,45	2,35
277,66	2,73
277,88	-2,92
278,09	-2,86
278,30	3,82
278,52	3,22
278,73	2,19
278,95	-0,03
279,16	3,73
279,38	4,17
279,59	1,34
279,81	-1,12
280,02	1,65
280,24	4,97
280,45	2,53
280,67	6,47
280,88	-0,58
281,09	0,65
281,31	3,44
281,52	1,77
281,74	1,58
281,95	2,85
282,17	2,47
282,38	2,21
282,60	1,29
282,81	-2,25
283,02	1,39
283,24	0,22
283,45	3,13
283,67	0,73
283,88	0,89
284,10	0,74
284,31	1,12
284,53	-0,60
284,74	-2,11
284,95	1,30
285,17	2,56
285,38	1,57
285,60	-1,10
285,81	1,46
286,03	2,96
286,24	2,52
286,45	2,97
286,67	0,74
286,88	1,52
287,10	0,94
287,31	1,68
287,53	2,85
287,74	4,24
287,95	2,95
288,17	-0,99
288,38	2,45
288,60	0,65
288,81	2,07
289,02	5,66
289,24	2,50
289,45	6,33
289,67	2,02
289,88	3,01
290,10	-2,59
290,31	1,94
290,52	-2,41
290,74	3,51
290,95	0,19
291,17	6,08
291,38	4,28
291,59	1,49
291,81	1,36
292,02	1,94
292,24	0,38
292,45	6,41
292,66	1,09
292,88	-0,26
293,09	0,80
293,31	3,06
293,52	2,86
293,73	2,50
293,95	3,03
294,16	4,80
294,37	3,43
294,59	0,57
294,80	-0,13
295,02	-0,80
295,23	2,97
295,44	1,13
295,66	-2,58
295,87	1,70
296,09	2,68
296,30	2,70
296,51	-4,75
296,73	0,77
296,94	-2,86
297,15	3,56
297,37	0,92
297,58	0,57
297,79	-0,07
298,01	0,22
298,22	1,35
298,44	5,94
298,65	3,06
298,86	2,94
299,08	0,54
299,29	1,86
299,50	2,55
299,72	1,90
299,93	0,54
300,14	-0,57
300,36	0,39
300,57	0,31
300,79	4,86
301,00	-0,94
301,21	4,14
301,43	1,97
301,64	2,60
301,85	1,74
302,07	4,18
302,28	-1,39
302,49	6,29
302,71	0,56
302,92	2,84
303,13	6,23
303,35	2,13
303,56	1,10
303,77	1,09
303,99	1,81
304,20	2,63
304,41	4,71
304,63	1,05
304,84	1,88
305,05	2,83
305,27	1,71
305,48	1,05
305,69	-0,36
305,91	3,39
306,12	1,99
306,33	2,27
306,55	0,25
306,76	0,89
306,97	-0,51
307,19	1,79
307,40	2,53
307,61	-1,67
307,82	0,03
308,04	0,51
308,25	6,21
308,46	2,02
308,68	1,42
308,89	3,83
309,10	-2,11
309,32	3,72
309,53	0,49
309,74	1,90
309,96	5,15
310,17	-2,13
310,38	3,30
310,59	2,48
310,81	3,61
311,02	0,77
311,23	3,59
311,45	-1,92
311,66	4,40
311,87	-2,60
312,09	3,80
312,30	0,62
312,51	3,33
312,72	3,32
312,94	0,17
313,15	2,34
313,36	-2,51
313,58	2,63
313,79	1,36
314,00	2,36
314,21	-0,88
314,43	-1,18
314,64	2,27
314,85	4,39
315,06	4,33
315,28	2,84
315,49	-0,84
315,70	2,63
315,92	2,40
316,13	6,95
316,34	-2,16
316,55	0,82
316,77	1,11
316,98	1,43
317,19	2,18
317,40	2,58
317,62	2,62
317,83	-2,82
318,04	1,99
318,25	2,06
318,47	1,80
318,68	2,52
318,89	1,06
319,11	4,47
319,32	4,03
319,53	3,27
319,74	4,13
319,96	1,11
320,17	3,45
320,38	4,95
320,59	3,69
320,81	1,63
321,02	1,35
321,23	4,52
321,44	2,73
321,65	-0,39
321,87	5,68
322,08	3,79
322,29	4,28
322,50	-1,55
322,72	2,36
322,93	-2,62
323,14	2,59
323,35	0,54
323,57	1,65
323,78	3,80
323,99	5,46
324,20	0,88
324,41	3,32
324,63	0,26
324,84	1,90
325,05	-2,32
325,26	2,67
325,48	3,35
325,69	2,65
325,90	1,75
326,11	5,26
326,32	3,49
326,54	-2,28
326,75	3,48
326,96	3,60
327,17	-2,43
327,39	0,82
327,60	-0,09
327,81	2,05
328,02	2,60
328,23	4,76
328,45	4,03
328,66	6,57
328,87	20,24
329,08	42,52
329,29	60,31
329,51	72,40
329,72	75,19
329,93	71,84
330,14	59,85
330,35	48,55
330,56	33,76
330,78	23,41
330,99	15,34
331,20	8,04
331,41	1,31
331,62	3,08
331,84	1,42
332,05	0,24
332,26	-0,89
332,47	0,14
332,68	-0,10
332,90	1,19
333,11	5,88
333,32	4,33
333,53	0,08
333,74	2,22
333,95	0,03
334,17	0,62
334,38	0,29
334,59	1,17
334,80	4,10
335,01	3,87
335,22	2,42
335,44	3,60
335,65	-0,29
335,86	2,44
336,07	1,58
336,28	1,79
336,49	0,87
336,71	-1,25
336,92	3,78
337,13	0,84
337,34	2,20
337,55	0,60
337,76	4,99
337,97	1,56
338,19	1,36
338,40	0,79
338,61	1,62
338,82	3,34
339,03	0,01
339,24	3,29
339,45	3,14
339,67	0,34
339,88	4,85
340,09	2,34
340,30	5,05
340,51	0,63
340,72	3,63
340,93	2,30
341,15	1,44
341,36	-0,27
341,57	0,74
341,78	3,05
341,99	-0,93
342,20	7,65
342,41	0,94
342,62	0,64
342,84	3,88
343,05	1,38
343,26	2,96
343,47	1,05
343,68	-0,33
343,89	3,32
344,10	2,46
344,31	0,06
344,53	-3,99
344,74	-0,37
344,95	-4,62
345,16	5,78
345,37	1,49
345,58	-1,39
345,79	2,23
346,00	2,00
346,21	3,13
346,42	3,64
346,64	2,82
346,85	3,69
347,06	-1,26
347,27	3,01
347,48	0,00
347,69	1,85
347,90	0,56
348,11	3,53
348,32	2,36
348,53	4,15
348,75	3,58
348,96	0,65
349,17	0,43
349,38	-0,95
349,59	6,24
349,80	1,65
350,01	2,87
350,22	1,00
350,43	3,59
350,64	4,73
350,85	4,10
351,06	4,03
351,28	5,52
351,49	5,11
351,70	1,40
351,91	-0,64
352,12	2,14
352,33	5,94
352,54	2,48
352,75	-1,77
352,96	2,12
353,17	4,38
353,38	3,61
353,59	5,02
353,80	2,95
354,01	4,92
354,22	-0,91
354,44	1,15
354,65	0,77
354,86	2,25
355,07	2,01
355,28	1,94
355,49	0,80
355,70	5,90
355,91	-0,81
356,12	-0,87
356,33	-1,83
356,54	1,56
356,75	1,61
356,96	2,93
357,17	-2,61
357,38	1,36
357,59	5,41
357,80	1,74
358,01	1,38
358,22	1,14
358,43	1,07
358,64	0,38
358,85	1,77
359,07	-1,79
359,28	3,41
359,49	3,42
359,70	1,25
359,91	0,57
360,12	3,39
360,33	1,28
360,54	3,31
360,75	-2,04
360,96	2,72
361,17	0,89
361,38	0,96
361,59	2,32
361,80	1,00
362,01	-0,15
362,22	2,49
362,43	-0,66
362,64	1,43
362,85	1,99
363,06	2,88
363,27	1,93
363,48	0,87
363,69	8,23
363,90	3,67
364,11	2,59
364,32	0,52
364,53	-2,11
364,74	4,58
364,95	1,60
365,16	4,01
365,37	3,43
365,58	3,46
365,79	1,76
366,00	3,02
366,21	0,88
366,42	0,66
366,63	3,31
366,84	0,38
367,05	3,98
367,26	0,98
367,47	1,05
367,68	4,63
367,89	3,49
368,10	1,49
368,31	2,41
368,52	0,80
368,73	-0,75
368,94	3,70
369,15	1,66
369,36	-0,23
369,57	2,07
369,78	0,64
369,99	-2,02
370,20	3,36
370,40	1,23
370,61	3,94
370,82	3,95
371,03	4,76
371,24	2,86
371,45	1,10
371,66	5,68
371,87	0,32
372,08	-0,72
372,29	1,81
372,50	2,27
372,71	1,70
372,92	0,40
373,13	4,69
373,34	-2,74
373,55	3,35
373,76	1,84
373,97	2,73
374,18	3,26
374,39	1,79
374,60	0,94
374,81	3,09
375,01	4,61
375,22	0,13
375,43	3,99
375,64	2,51
375,85	0,73
376,06	2,44
376,27	5,72
376,48	0,28
376,69	4,13
376,90	4,59
377,11	0,43
377,32	4,16
377,53	1,02
377,74	0,40
377,94	3,82
378,15	2,94
378,36	0,59
378,57	6,12
378,78	-1,17
378,99	3,55
379,20	5,34
379,41	-0,56
379,62	2,84
379,83	5,68
380,04	1,91
380,25	6,05
380,45	1,62
380,66	5,18
380,87	0,61
381,08	5,40
381,29	3,09
381,50	5,52
381,71	-0,47
381,92	-1,45
382,13	6,01
382,34	-0,74
382,55	-2,17
382,75	4,42
382,96	2,98
383,17	0,62
383,38	-0,94
383,59	1,95
383,80	6,30
384,01	2,09
384,22	3,29
384,43	0,42
384,63	3,22
384,84	5,41
385,05	4,11
385,26	-0,37
385,47	0,69
385,68	2,11
385,89	2,30
386,10	2,73
386,30	0,20
386,51	2,05
386,72	4,66
386,93	1,99
387,14	2,73
387,35	2,66
387,56	1,73
387,77	4,95
387,97	1,38
388,18	1,19
388,39	-0,78
388,60	4,90
388,81	0,72
389,02	3,82
389,23	-0,41
389,43	0,02
389,64	-0,80
389,85	1,96
390,06	-1,72
390,27	1,50
390,48	2,16
390,69	4,09
390,89	1,60
391,10	5,23
391,31	1,95
391,52	4,49
391,73	2,00
391,94	-0,60
392,14	1,96
392,35	1,41
392,56	-0,64
392,77	2,27
392,98	4,79
393,19	2,42
393,39	0,33
393,60	-2,16
393,81	4,58
394,02	4,51
394,23	6,45
394,44	0,76
394,64	1,16
394,85	0,33
395,06	-3,80
395,27	0,62
395,48	-0,40
395,69	-0,15
395,89	7,11
396,10	2,16
396,31	5,04
396,52	-1,14
396,73	3,13
396,93	2,35
397,14	3,74
397,35	4,99
397,56	3,70
397,77	-0,14
397,97	0,36
398,18	1,64
398,39	-2,29
398,60	-0,31
398,81	1,58
399,01	-0,88
399,22	2,53
399,43	3,31
399,64	5,50
399,85	2,83
400,05	1,43
400,26	-0,83
400,47	0,24
400,68	5,32
400,89	3,50
401,09	0,43
401,30	-0,15
401,51	1,67
401,72	3,10
401,93	2,11
402,13	0,55
402,34	3,29
402,55	0,80
402,76	0,75
402,96	-1,72
403,17	-0,98
403,38	1,06
403,59	3,65
403,80	-0,51
404,00	2,58
404,21	2,72
404,42	4,24
404,63	2,57
404,83	2,25
405,04	3,74
405,25	1,33
405,46	2,99
405,66	-1,26
405,87	2,51
406,08	1,98
406,29	1,09
406,49	3,62
406,70	1,91
406,91	2,30
407,12	1,87
407,32	-1,90
407,53	-0,36
407,74	3,72
407,95	1,17
408,15	1,63
408,36	4,75
408,57	2,07
408,78	0,61
408,98	4,93
409,19	1,19
409,40	4,28
409,61	5,99
409,81	3,65
410,02	1,78
410,23	2,33
410,44	2,32
410,64	-1,42
410,85	3,75
411,06	3,70
411,26	1,76
411,47	4,03
411,68	2,03
411,89	1,25
412,09	3,72
412,30	3,42
412,51	5,53
412,72	3,47
412,92	1,88
413,13	3,92
413,34	2,01
413,54	4,23
413,75	1,58
413,96	0,77
414,17	3,65
414,37	-1,62
414,58	0,34
414,79	2,20
414,99	3,76
415,20	3,31
415,41	7,35
415,61	-0,78
415,82	-0,43
416,03	-0,45
416,24	-2,13
416,44	0,91
416,65	1,11
416,86	0,23
417,06	2,96
417,27	4,15
417,48	-2,77
417,68	-0,18
417,89	-0,15
418,10	-2,76
418,30	0,45
418,51	-0,88
418,72	0,69
418,92	2,03
419,13	5,15
419,34	2,43
419,55	1,76
419,75	-1,10
419,96	0,74
420,17	3,48
420,37	2,40
420,58	-0,75
420,79	2,61
420,99	2,87
421,20	-0,16
421,41	0,39
421,61	0,29
421,82	2,04
422,03	3,17
422,23	2,14
422,44	1,29
422,65	1,46
422,85	0,02
423,06	-0,34
423,26	-1,48
423,47	1,96
423,68	3,12
423,88	4,61
424,09	2,49
424,30	5,53
424,50	2,35
424,71	2,17
424,92	4,30
425,12	3,55
425,33	8,20
425,54	0,96
425,74	-1,10
425,95	2,81
426,15	5,13
426,36	-3,28
426,57	1,30
426,77	3,88
426,98	5,69
427,19	3,01
427,39	3,43
427,60	1,88
427,81	5,50
428,01	1,07
428,22	1,17
428,42	3,29
428,63	-0,00
428,84	3,50
429,04	-0,27
429,25	5,81
429,45	2,05
429,66	-0,68
429,87	-0,55
430,07	2,19
430,28	2,29
430,49	0,73
430,69	1,96
430,90	2,00
431,10	4,23
431,31	3,24
431,52	-0,33
431,72	1,40
431,93	0,69
432,13	2,97
432,34	-0,32
432,55	0,06
432,75	1,00
432,96	-1,97
433,16	5,04
433,37	4,29
433,58	3,94
433,78	2,96
433,99	3,82
434,19	0,27
434,40	2,47
434,60	2,27
434,81	2,10
435,02	2,35
435,22	3,51
435,43	1,72
435,63	0,10
435,84	1,83
436,05	5,07
436,25	3,54
436,46	3,50
436,66	-2,74
436,87	0,80
437,07	3,45
437,28	-0,26
437,48	1,83
437,69	1,28
437,90	7,50
438,10	2,24
438,31	2,02
438,51	1,96
438,72	4,03
438,92	2,15
439,13	0,49
439,34	0,93
439,54	2,83
439,75	-0,26
439,95	3,01
440,16	1,43
440,36	0,22
440,57	0,67
440,77	1,63
440,98	7,19
441,18	3,28
441,39	4,81
441,60	1,02
441,80	4,76
442,01	4,05
442,21	4,07
442,42	4,41
442,62	3,11
442,83	2,82
443,03	2,92
443,24	3,03
443,44	2,14
443,65	5,55
443,85	3,00
444,06	-0,86
444,26	2,74
444,47	3,00
444,67	-2,17
444,88	3,12
445,09	2,54
445,29	2,43
445,50	0,99
445,70	1,47
445,91	2,22
446,11	3,64
446,32	0,22
446,52	-0,32
446,73	2,23
446,93	-3,52
447,14	1,09
447,34	-3,17
447,55	0,93
447,75	1,76
447,96	3,61
448,16	2,62
448,37	5,24
448,57	1,64
448,78	4,28
448,98	6,31
449,19	6,19
449,39	4,53
449,60	1,89
449,80	5,51
450,01	-0,10
450,21	3,05
450,42	3,68
450,62	1,51
450,83	4,16
451,03	3,43
451,23	2,47
451,44	1,78
451,64	1,32
451,85	2,69
452,05	-1,02
452,26	0,09
452,46	0,17
452,67	1,42
452,87	2,81
453,08	2,43
453,28	8,43
453,49	0,71
453,69	3,83
453,90	2,66
454,10	5,22
454,31	1,00
454,51	0,42
454,71	-1,20
454,92	1,59
455,12	0,66
455,33	-0,40
455,53	1,64
455,74	5,64
455,94	2,74
456,15	2,42
456,35	3,50
456,55	0,11
456,76	1,12
456,96	-0,20
457,17	1,10
457,37	2,63
457,58	3,64
457,78	3,80
457,99	2,46
458,19	4,38
458,39	-1,82
458,60	3,05
458,80	2,22
459,01	-0,48
459,21	3,07
459,42	0,27
459,62	-2,40
459,82	3,13
460,03	0,75
460,23	-1,25
460,44	2,74
460,64	3,02
460,85	3,19
461,05	3,04
461,25	2,49
461,46	-0,56
461,66	2,68
461,87	4,47
462,07	2,59
462,27	2,75
462,48	-1,61
462,68	2,22
462,89	1,28
463,09	3,30
463,29	0,84
463,50	0,17
463,70	-1,94
463,91	3,89
464,11	5,00
464,31	0,41
464,52	2,95
464,72	4,50
464,93	4,15
465,13	0,70
465,33	2,36
465,54	4,56
465,74	10,31
465,95	8,86
466,15	5,20
466,35	3,90
466,56	5,16
466,76	2,37
466,96	6,31
467,17	3,81
467,37	3,51
467,58	1,16
467,78	3,88
467,98	3,97
468,19	4,29
468,39	3,80
468,59	-3,49
468,80	6,23
469,00	0,98
469,21	-1,01
469,41	1,75
469,61	-0,42
469,82	1,61
470,02	-0,10
470,22	1,38
470,43	1,12
470,63	0,51
470,83	3,03
471,04	2,34
471,24	2,67
471,45	3,21
471,65	0,56
471,85	1,26
472,06	1,40
472,26	3,69
472,46	-0,91
472,67	2,47
472,87	4,28
473,07	-1,37
473,28	0,58
473,48	7,28
473,68	3,66
473,89	2,95
474,09	7,31
474,29	6,23
474,50	2,27
474,70	-0,15
474,90	0,24
475,11	2,59
475,31	4,17
475,51	0,89
475,72	0,89
475,92	-0,07
476,12	7,11
476,33	-0,47
476,53	4,18
476,73	4,74
476,93	-0,88
477,14	-0,55
477,34	2,24
477,54	1,75
477,75	4,03
477,95	2,10
478,15	0,40
478,36	0,88
478,56	-0,14
478,76	-0,16
478,97	2,28
479,17	1,37
479,37	6,99
479,57	3,27
479,78	5,28
479,98	6,69
480,18	0,89
480,39	2,55
480,59	1,12
480,79	3,15
480,99	5,89
481,20	1,69
481,40	0,03
481,60	-2,43
481,81	-0,14
482,01	0,72
482,21	-0,46
482,41	1,00
482,62	1,12
482,82	-0,31
483,02	5,21
483,23	3,93
483,43	2,57
483,63	3,43
483,83	0,75
484,04	0,39
484,24	0,72
484,44	5,66
484,64	3,69
484,85	1,02
485,05	5,20
485,25	0,88
485,45	1,35
485,66	2,91
485,86	1,71
486,06	3,40
486,26	-1,27
486,47	0,89
486,67	1,34
486,87	4,93
487,07	6,55
487,28	3,83
487,48	5,87
487,68	0,29
487,88	6,37
488,09	1,29
488,29	3,34
488,49	0,54
488,69	2,00
488,90	0,07
489,10	2,62
489,30	2,42
489,50	3,19
489,71	-1,47
489,91	-2,37
490,11	4,21
490,31	4,57
490,52	0,20
490,72	5,92
490,92	3,13
491,12	3,56
491,32	6,03
491,53	5,44
491,73	0,73
491,93	5,29
492,13	-1,10
492,33	3,03
492,54	1,43
492,74	1,69
492,94	-0,01
493,14	3,49
493,35	-0,57
493,55	2,31
493,75	4,68
493,95	-0,48
494,15	3,79
494,36	3,08
494,56	3,88
494,76	4,87
494,96	4,23
495,16	2,76
495,37	2,54
495,57	3,96
495,77	4,19
495,97	4,20
496,17	3,23
496,37	11,30
496,58	23,60
496,78	30,80
496,98	38,58
497,18	48,57
497,38	45,24
497,59	45,89
497,79	24,62
497,99	20,91
498,19	12,06
498,39	9,43
498,59	4,55
498,80	4,12
499,00	6,61
499,20	2,95
499,40	2,86
499,60	2,58
499,80	5,63
500,01	-0,22
500,21	3,22
500,41	-0,24
500,61	0,99
500,81	4,12
501,01	3,98
501,22	4,06
501,42	-0,33
501,62	-0,88
501,82	1,70
502,02	2,77
502,22	3,51
502,42	4,22
502,63	4,69
502,83	-0,38
503,03	2,20
503,23	3,97
503,43	4,23
503,63	1,37
503,83	1,69
504,04	2,35
504,24	0,10
504,44	3,20
504,64	-0,84
504,84	3,51
505,04	1,83
505,24	3,85
505,44	4,02
505,65	0,83
505,85	1,20
506,05	4,44
506,25	2,65
506,45	4,53
506,65	4,33
506,85	2,89
507,05	-1,21
507,26	0,72
507,46	2,55
507,66	4,60
507,86	0,74
508,06	1,37
508,26	1,88
508,46	2,39
508,66	2,15
508,86	4,06
509,06	0,40
509,27	1,15
509,47	2,18
509,67	-0,05
509,87	4,08
510,07	2,76
510,27	0,74
510,47	3,15
510,67	-2,80
510,87	0,08
511,07	5,29
511,28	0,87
511,48	1,71
511,68	5,38
511,88	4,94
512,08	3,02
512,28	1,90
512,48	4,92
512,68	4,78
512,88	2,75
513,08	3,52
513,28	2,17
513,48	3,94
513,68	4,42
513,89	11,99
514,09	8,70
514,29	14,43
514,49	8,12
514,69	9,98
514,89	8,21
515,09	3,01
515,29	8,02
515,49	4,34
515,69	3,70
515,89	0,97
516,09	3,19
516,29	1,98
516,49	-3,56
516,69	4,84
516,89	2,49
517,09	0,38
517,29	0,20
517,50	2,03
517,70	3,75
517,90	-0,19
518,10	4,16
518,30	1,58
518,50	1,56
518,70	-0,19
518,90	3,69
519,10	4,48
519,30	1,23
519,50	6,16
519,70	1,19
519,90	-0,58
520,10	3,50
520,30	2,49
520,50	2,91
520,70	5,87
520,90	5,11
521,10	2,29
521,30	3,19
521,50	2,74
521,70	-0,70
521,90	3,27
522,10	2,90
522,30	6,54
522,50	1,94
522,70	1,60
522,90	0,14
523,10	3,46
523,30	2,57
523,50	1,66
523,70	1,90
523,90	4,02
524,10	-1,24
524,30	2,08
524,50	2,99
524,70	-1,27
524,90	2,24
525,10	3,29
525,30	1,81
525,50	4,06
525,70	2,46
525,90	1,89
526,10	-0,93
526,30	3,97
526,50	4,51
526,70	3,69
526,90	-0,35
527,10	3,30
527,30	0,55
527,50	2,37
527,70	4,14
527,90	0,10
528,10	2,71
528,30	-1,02
528,50	7,30
528,70	2,30
528,90	-1,61
529,10	5,69
529,30	3,70
529,50	0,99
529,70	-0,22
529,90	2,68
530,10	0,16
530,29	4,15
530,49	0,86
530,69	4,15
530,89	5,25
531,09	4,67
531,29	4,34
531,49	3,81
531,69	1,99
531,89	4,23
532,09	3,77
532,29	1,45
532,49	1,99
532,69	2,50
532,89	0,43
533,09	2,77
533,29	-1,05
533,49	4,34
533,68	1,00
533,88	-1,19
534,08	4,29
534,28	2,67
534,48	6,10
534,68	4,47
534,88	4,07
535,08	1,62
535,28	5,24
535,48	0,53
535,68	2,04
535,88	0,00
536,08	4,59
536,27	2,37
536,47	2,76
536,67	3,17
536,87	2,66
537,07	0,38
537,27	2,46
537,47	4,48
537,67	3,45
537,87	-1,39
538,07	2,85
538,27	4,88
538,46	-0,79
538,66	8,37
538,86	2,50
539,06	2,26
539,26	0,02
539,46	5,37
539,66	4,66
539,86	4,20
540,06	4,76
540,25	1,43
540,45	4,02
540,65	1,86
540,85	2,59
541,05	-0,99
541,25	1,52
541,45	8,55
541,65	1,49
541,85	7,77
542,04	2,36
542,24	0,70
542,44	1,73
542,64	4,06
542,84	5,23
543,04	3,99
543,24	0,82
543,43	2,13
543,63	4,70
543,83	7,59
544,03	2,25
544,23	1,42
544,43	2,23
544,63	-1,77
544,82	3,71
545,02	2,48
545,22	0,38
545,42	3,72
545,62	-0,11
545,82	-1,07
546,02	1,14
546,21	4,41
546,41	5,70
546,61	5,71
546,81	3,73
547,01	4,15
547,21	5,31
547,40	6,43
547,60	0,33
547,80	1,17
548,00	3,26
548,20	1,16
548,40	0,43
548,59	6,26
548,79	1,37
548,99	2,80
549,19	3,33
549,39	5,04
549,59	-1,31
549,78	1,37
549,98	2,15
550,18	3,65
550,38	4,43
550,58	3,31
550,77	6,34
550,97	3,61
551,17	5,03
551,37	7,35
551,57	5,66
551,76	2,36
551,96	3,27
552,16	3,17
552,36	4,39
552,56	4,40
552,75	4,31
552,95	2,31
553,15	3,87
553,35	8,86
553,55	4,52
553,74	3,88
553,94	4,42
554,14	2,13
554,34	3,10
554,54	2,43
554,73	4,71
554,93	5,15
555,13	8,22
555,33	3,94
555,53	4,39
555,72	4,46
555,92	6,49
556,12	1,32
556,32	9,41
556,51	5,14
556,71	2,45
556,91	4,21
557,11	4,32
557,30	3,54
557,50	3,44
557,70	2,66
557,90	2,56
558,10	3,42
558,29	4,11
558,49	5,34
558,69	5,56
558,89	10,18
559,08	2,01
559,28	3,18
559,48	4,58
559,68	3,57
559,87	3,62
560,07	7,62
560,27	3,45
560,47	6,41
560,66	4,35
560,86	1,92
561,06	3,62
561,25	6,03
561,45	7,44
561,65	1,83
561,85	8,89
562,04	1,44
562,24	5,87
562,44	3,69
562,64	6,81
562,83	4,80
563,03	7,06
563,23	2,96
563,42	6,06
563,62	6,40
563,82	4,66
564,02	5,68
564,21	2,95
564,41	5,38
564,61	10,03
564,80	9,73
565,00	11,17
565,20	3,93
565,40	3,50
565,59	9,74
565,79	5,08
565,99	9,21
566,18	8,95
566,38	12,78
566,58	28,69
566,78	60,49
566,97	99,78
567,17	167,40
567,37	235,44
567,56	295,13
567,76	318,02
567,96	313,10
568,15	271,90
568,35	210,97
568,55	138,55
568,74	81,59
568,94	53,28
569,14	34,26
569,33	23,39
569,53	19,79
569,73	20,35
569,92	20,58
570,12	17,05
570,32	16,13
570,52	13,25
570,71	15,72
570,91	14,06
571,11	14,99
571,30	15,50
571,50	16,54
571,70	17,99
571,89	16,94
572,09	18,52
572,28	17,26
572,48	21,21
572,68	22,40
572,87	23,03
573,07	20,69
573,27	22,61
573,46	23,49
573,66	17,60
573,86	22,48
574,05	17,48
574,25	24,00
574,45	19,84
574,64	18,38
574,84	22,67
575,04	20,99
575,23	17,32
575,43	19,75
575,62	18,81
575,82	18,88
576,02	21,41
576,21	18,46
576,41	16,66
576,61	19,32
576,80	17,03
577,00	18,56
577,19	20,49
577,39	21,06
577,59	23,03
577,78	20,02
577,98	21,78
578,18	17,94
578,37	18,16
578,57	21,63
578,76	26,15
578,96	24,43
579,16	26,56
579,35	19,96
579,55	19,13
579,74	21,84
579,94	25,68
580,14	27,23
580,33	27,95
580,53	31,43
580,72	27,30
580,92	29,56
581,12	28,42
581,31	27,76
581,51	32,03
581,70	31,54
581,90	34,98
582,10	37,57
582,29	33,88
582,49	37,86
582,68	41,85
582,88	40,36
583,07	47,24
583,27	49,11
583,47	61,74
583,66	72,41
583,86	90,59
584,05	104,60
584,25	123,56
584,44	137,90
584,64	141,02
584,84	145,48
585,03	140,61
585,23	133,35
585,42	129,13
585,62	121,41
585,81	121,71
586,01	124,29
586,20	136,71
586,40	146,08
586,60	172,79
586,79	248,27
586,99	626,66
587,18	2554,87
587,38	8443,81
587,57	18343,84
587,77	29056,86
587,96	40288,82
588,16	48431,73
588,35	52036,30
588,55	50933,90
588,75	46035,87
588,94	39289,22
589,14	29883,53
589,33	18417,60
589,53	10644,66
589,72	6167,16
589,92	3873,00
590,11	2405,12
590,31	1649,13
590,50	1181,18
590,70	862,35
590,89	666,22
591,09	510,85
591,28	391,80
591,48	294,80
591,67	218,33
591,87	180,71
592,06	146,40
592,26	127,21
592,45	111,51
592,65	105,50
592,84	94,72
593,04	86,08
593,23	89,01
593,43	73,68
593,62	75,65
593,82	70,98
594,01	68,22
594,21	66,19
594,40	60,36
594,60	63,59
594,79	58,20
594,99	55,37
595,18	56,46
595,38	51,62
595,57	52,37
595,77	51,81
595,96	49,31
596,16	46,89
596,35	45,87
596,55	42,34
596,74	42,51
596,94	38,15
597,13	38,21
597,33	38,91
597,52	37,08
597,72	39,13
597,91	35,98
598,11	32,11
598,30	34,92
598,50	36,34
598,69	37,13
598,88	33,26
599,08	34,19
599,27	31,20
599,47	24,43
599,66	27,50
599,86	26,13
600,05	28,15
600,25	30,89
600,44	25,32
600,64	23,89
600,83	24,73
601,02	24,18
601,22	25,24
601,41	25,66
601,61	25,38
601,80	23,52
602,00	22,61
602,19	22,95
602,38	19,72
602,58	23,11
602,77	22,70
602,97	15,26
603,16	18,92
603,36	24,18
603,55	18,73
603,74	21,74
603,94	20,96
604,13	22,99
604,33	22,93
604,52	19,01
604,72	21,62
604,91	21,60
605,10	16,97
605,30	19,97
605,49	17,13
605,69	18,16
605,88	14,91
606,07	19,32
606,27	12,74
606,46	13,87
606,66	17,92
606,85	18,10
607,04	11,64
607,24	17,17
607,43	11,53
607,63	13,97
607,82	16,09
608,01	17,27
608,21	15,00
608,40	15,63
608,60	14,21
608,79	13,87
608,98	20,42
609,18	12,66
609,37	15,26
609,57	12,06
609,76	8,58
609,95	13,67
610,15	14,72
610,34	13,04
610,53	14,53
610,73	12,30
610,92	13,03
611,11	11,22
611,31	17,99
611,50	10,90
611,70	13,14
611,89	16,29
612,08	11,62
612,28	12,36
612,47	12,66
612,66	12,41
612,86	13,35
613,05	8,79
613,24	10,03
613,44	9,70
613,63	15,28
613,82	19,44
614,02	24,33
614,21	27,54
614,41	41,34
614,60	49,06
614,79	63,57
614,99	66,96
615,18	70,67
615,37	60,57
615,57	56,59
615,76	43,72
615,95	28,69
616,15	25,44
616,34	17,54
616,53	13,18
616,73	14,96
616,92	13,44
617,11	11,73
617,30	11,23
617,50	10,24
617,69	11,03
617,88	11,04
618,08	12,08
618,27	10,01
618,46	3,42
618,66	8,39
618,85	6,79
619,04	10,64
619,24	7,79
619,43	10,95
619,62	9,97
619,82	11,15
620,01	8,43
620,20	11,58
620,39	6,87
620,59	6,97
620,78	8,30
620,97	7,11
621,17	9,63
621,36	12,61
621,55	8,68
621,74	8,74
621,94	10,60
622,13	11,20
622,32	6,52
622,52	11,90
622,71	9,63
622,90	6,60
623,09	8,94
623,29	7,77
623,48	9,24
623,67	11,72
623,86	8,76
624,06	4,65
624,25	7,60
624,44	9,16
624,64	7,00
624,83	10,02
625,02	7,96
625,21	5,57
625,41	10,95
625,60	9,93
625,79	7,11
625,98	3,52
626,18	7,70
626,37	6,84
626,56	9,89
626,75	6,86
626,95	5,44
627,14	6,51
627,33	5,62
627,52	4,42
627,72	6,90
627,91	5,52
628,10	3,64
628,29	7,35
628,49	6,99
628,68	3,29
628,87	3,31
629,06	8,67
629,25	5,75
629,45	9,33
629,64	7,18
629,83	5,22
630,02	5,39
630,22	6,58
630,41	4,30
630,60	6,52
630,79	7,55
630,98	5,51
631,18	5,77
631,37	6,10
631,56	5,91
631,75	4,16
631,94	8,37
632,14	9,24
632,33	8,82
632,52	5,41
632,71	5,00
632,90	7,14
633,10	4,67
633,29	5,69
633,48	8,71
633,67	5,91
633,86	5,86
634,06	11,45
634,25	4,04
634,44	4,43
634,63	6,68
634,82	4,34
635,02	2,78
635,21	6,93
635,40	4,67
635,59	4,60
635,78	9,29
635,97	4,18
636,17	6,36
636,36	6,84
636,55	7,67
636,74	5,12
636,93	9,41
637,12	1,72
637,32	3,73
637,51	7,58
637,70	3,26
637,89	6,28
638,08	7,04
638,27	0,50
638,47	8,35
638,66	8,02
638,85	4,38
639,04	6,34
639,23	2,98
639,42	5,38
639,62	5,61
639,81	6,18
640,00	6,63
640,19	3,23
640,38	3,96
640,57	3,88
640,76	7,76
640,95	2,89
641,15	2,42
641,34	6,13
641,53	5,29
641,72	4,86
641,91	4,19
642,10	9,44
642,29	7,62
642,49	0,92
642,68	6,82
642,87	6,57
643,06	5,00
643,25	2,32
643,44	6,69
643,63	5,44
643,82	4,48
644,01	0,57
644,21	5,54
644,40	3,87
644,59	-0,43
644,78	6,51
644,97	3,24
645,16	4,10
645,35	1,53
645,54	6,61
645,73	3,86
645,92	3,95
646,12	4,65
646,31	2,16
646,50	8,72
646,69	6,90
646,88	6,07
647,07	4,94
647,26	1,51
647,45	2,44
647,64	6,87
647,83	7,23
648,02	4,21
648,22	1,53
648,41	0,96
648,60	3,85
648,79	0,70
648,98	6,75
649,17	3,54
649,36	5,04
649,55	2,20
649,74	1,38
649,93	4,20
650,12	6,37
650,31	5,57
650,50	6,00
650,69	5,02
650,88	4,44
651,08	3,08
651,27	2,72
651,46	1,01
651,65	1,66
651,84	2,97
652,03	2,24
652,22	2,14
652,41	3,79
652,60	4,48
652,79	4,85
652,98	2,27
653,17	3,40
653,36	6,23
653,55	3,83
653,74	-0,04
653,93	2,18
654,12	3,70
654,31	-0,00
654,50	4,09
654,69	7,03
654,88	4,17
655,07	5,44
655,26	0,89
655,45	1,76
655,64	5,16
655,83	3,28
656,02	2,32
656,21	0,32
656,40	6,86
656,59	2,56
656,78	4,02
656,97	0,93
657,17	3,65
657,36	5,80
657,55	1,26
657,74	4,35
657,93	3,56
658,12	3,02
658,31	4,50
658,50	6,74
658,69	5,40
658,87	1,23
659,06	0,12
659,25	1,37
659,44	3,07
659,63	4,39
659,82	3,02
660,01	4,11
660,20	3,93
660,39	5,07
660,58	0,96
660,77	5,31
660,96	2,73
661,15	2,49
661,34	-1,42
661,53	4,05
661,72	0,32
661,91	2,88
662,10	4,28
662,29	1,80
662,48	1,06
662,67	3,60
662,86	-0,42
663,05	1,28
663,24	1,17
663,43	3,47
663,62	0,65
663,81	1,91
664,00	5,22
664,19	3,17
664,38	6,59
664,57	-0,11
664,76	2,31
664,94	-0,42
665,13	1,21
665,32	1,68
665,51	5,54
665,70	2,12
665,89	-0,20
666,08	1,29
666,27	2,89
666,46	4,25
666,65	0,39
666,84	1,56
667,03	-0,50
667,22	3,00
667,41	-3,71
667,60	-0,23
667,78	3,25
667,97	4,21
668,16	-0,69
668,35	5,34
668,54	3,97
668,73	2,25
668,92	2,75
669,11	2,90
669,30	2,52
669,49	-0,18
669,68	5,08
669,86	4,13
670,05	1,43
670,24	3,46
670,43	2,81
670,62	4,51
670,81	0,61
671,00	1,84
671,19	-0,92
671,38	0,40
671,57	4,91
671,75	2,31
671,94	4,64
672,13	3,77
672,32	-0,99
672,51	-0,55
672,70	1,96
672,89	1,63
673,08	3,28
673,26	0,95
673,45	1,51
673,64	-1,41
673,83	0,79
674,02	1,33
674,21	2,16
674,40	3,32
674,59	1,17
674,77	-0,22
674,96	2,81
675,15	0,92
675,34	3,71
675,53	2,49
675,72	0,68
675,91	2,03
676,09	-0,08
676,28	2,19
676,47	-0,71
676,66	1,46
676,85	-0,89
677,04	3,09
677,22	2,41
677,41	-1,19
677,60	0,39
677,79	5,73
677,98	0,27
678,17	5,73
678,36	0,67
678,54	-0,49
678,73	-1,59
678,92	5,09
679,11	2,67
679,30	-0,53
679,48	1,21
679,67	-1,69
679,86	-0,68
680,05	-0,92
680,24	2,90
680,43	0,23
680,61	0,49
680,80	3,09
680,99	1,17
681,18	-1,85
681,37	-0,38
681,55	1,70
681,74	4,56
681,93	-0,99
682,12	3,73
682,31	1,15
682,49	1,93
682,68	0,40
682,87	-0,06
683,06	-1,17
683,25	0,32
683,43	0,29
683,62	3,96
683,81	2,50
684,00	2,66
684,19	-1,39
684,37	2,57
684,56	-2,55
684,75	1,34
684,94	0,06
685,12	1,23
685,31	4,88
685,50	-0,22
685,69	-1,58
685,88	1,29
686,06	3,41
686,25	1,79
686,44	3,12
686,63	0,09
686,81	-1,30
687,00	-4,46
687,19	-2,35
687,38	-1,28
687,56	1,48
687,75	3,02
687,94	2,24
688,13	2,91
688,31	5,26
688,50	-0,61
688,69	1,60
688,88	7,20
689,06	3,49
689,25	4,05
689,44	1,83
689,63	0,98
689,81	4,58
690,00	0,52
690,19	1,88
690,38	4,40
690,56	2,85
690,75	1,74
690,94	1,30
691,13	-1,74
691,31	4,99
691,50	-0,31
691,69	0,43
691,87	0,83
692,06	0,65
692,25	2,19
692,44	-0,67
692,62	4,77
692,81	0,08
693,00	-0,84
693,18	4,97
693,37	-0,11
693,56	-0,22
693,75	2,05
693,93	2,45
694,12	2,76
694,31	-0,08
694,49	-0,33
694,68	5,04
694,87	4,25
695,05	7,00
695,24	5,07
695,43	11,01
695,62	12,67
695,80	16,98
695,99	10,51
696,18	8,89
696,36	6,49
696,55	5,33
696,74	3,67
696,92	0,79
697,11	3,75
697,30	1,95
697,48	1,25
697,67	-3,44
697,86	-2,34
698,04	-0,08
698,23	0,74
698,42	-0,67
698,60	0,36
698,79	-3,23
698,98	-0,10
699,16	1,36
699,35	3,98
699,54	-0,42
699,72	-5,45
699,91	1,62
700,10	0,43
700,28	2,76
700,47	1,94
700,66	-1,20
700,84	-1,57
701,03	6,01
701,21	4,84
701,40	2,21
701,59	5,82
701,77	1,65
701,96	2,58
702,15	0,44
702,33	-2,06
702,52	0,34
702,71	2,15
702,89	-0,51
703,08	0,80
703,26	1,96
703,45	-0,67
703,64	1,41
703,82	5,35
704,01	2,64
704,20	3,18
704,38	1,11
704,57	3,15
704,75	1,37
704,94	0,72
705,13	3,28
705,31	5,32
705,50	3,40
705,68	5,88
705,87	12,78
706,06	7,60
706,24	5,19
706,43	4,60
706,61	-2,07
706,80	2,60
706,99	3,87
707,17	0,65
707,36	-0,46
707,54	3,40
707,73	-1,55
707,92	-1,31
708,10	-0,89
708,29	-1,82
708,47	5,05
708,66	4,39
708,84	0,15
709,03	2,86
709,22	3,14
709,40	1,53
709,59	1,23
709,77	0,43
709,96	0,97
710,14	-0,11
710,33	0,15
710,52	1,64
710,70	-4,50
710,89	2,27
711,07	2,32
711,26	0,62
711,44	0,84
711,63	5,43
711,81	2,12
712,00	1,22
712,19	-0,01
712,37	0,67
712,56	-1,66
712,74	3,12
712,93	-1,41
713,11	-0,97
713,30	2,44
713,48	-0,91
713,67	0,05
713,85	3,35
714,04	2,08
714,22	-0,07
714,41	1,90
714,59	-4,37
714,78	0,30
714,97	3,31
715,15	2,36
715,34	0,24
715,52	1,86
715,71	3,45
715,89	0,67
716,08	0,59
716,26	-1,67
716,45	1,47
716,63	-1,78
716,82	0,11
717,00	0,99
717,19	-2,69
717,37	1,42
717,56	0,67
717,74	4,17
717,93	-2,72
718,11	-0,46
718,30	3,27
718,48	0,60
718,67	0,96
718,85	1,05
719,04	3,87
719,22	2,14
719,41	-0,29
719,59	0,25
719,78	-0,37
719,96	2,72
720,15	2,91
720,33	0,79
720,52	-0,42
720,70	3,50
720,88	2,61
721,07	-0,17
721,25	1,38
721,44	-3,80
721,62	0,14
721,81	-2,56
721,99	-0,78
722,18	3,65
722,36	-0,03
722,55	-0,63
722,73	4,70
722,92	3,78
723,10	2,97
723,28	3,61
723,47	1,66
723,65	0,41
723,84	-1,01
724,02	0,51
724,21	1,79
724,39	0,17
724,58	0,25
724,76	0,64
724,94	1,82
725,13	-0,96
725,31	1,07
725,50	0,77
725,68	3,80
725,87	-0,48
726,05	3,73
726,23	3,76
726,42	6,27
726,60	2,06
726,79	5,94
726,97	-0,60
727,16	0,89
727,34	1,70
727,52	-0,09
727,71	2,06
727,89	0,29
728,08	0,34
728,26	-0,12
728,44	2,88
728,63	-3,50
728,81	0,39
729,00	3,11
729,18	1,22
729,36	5,32
729,55	0,10
729,73	0,81
729,92	3,26
730,10	4,15
730,28	4,04
730,47	1,54
730,65	-1,43
730,84	-0,55
731,02	0,06
731,20	7,80
731,39	0,58
731,57	2,19
731,75	7,59
731,94	0,09
732,12	-0,80
732,31	0,88
732,49	-1,43
732,67	-1,43
732,86	2,45
733,04	-0,26
733,22	0,31
733,41	1,58
733,59	-5,04
733,78	0,23
733,96	6,78
734,14	1,46
734,33	4,01
734,51	0,67
734,69	1,51
734,88	-0,13
735,06	0,47
735,24	-2,21
735,43	-0,74
735,61	3,26
735,79	0,11
735,98	3,91
736,16	3,59
736,34	1,80
736,53	4,66
736,71	0,34
736,89	4,19
737,08	8,75
737,26	8,69
737,44	15,13
737,63	13,11
737,81	17,37
737,99	10,43
738,18	8,46
738,36	3,98
738,54	3,10
738,73	3,06
738,91	-0,46
739,09	2,29
739,28	-1,02
739,46	1,06
739,64	-1,82
739,82	-0,61
740,01	1,30
740,19	-0,27
740,37	6,65
740,56	0,97
740,74	1,98
740,92	-1,01
741,11	-0,25
741,29	1,07
741,47	1,00
741,65	1,07
741,84	2,18
742,02	3,83
742,20	-0,75
742,39	0,93
742,57	1,10
742,75	1,50
742,93	-0,93
743,12	-1,11
743,30	2,46
743,48	-2,20
743,67	-3,50
743,85	0,66
744,03	2,13
744,21	-0,48
744,40	0,70
744,58	1,48
744,76	-3,75
744,94	-1,54
745,13	-1,07
745,31	0,74
745,49	0,80
745,67	2,35
745,86	-0,92
746,04	-1,95
746,22	0,81
746,40	-0,35
746,59	-0,47
746,77	1,31
746,95	-1,21
747,13	1,95
747,32	-1,04
747,50	4,67
747,68	0,20
747,86	0,62
748,05	-0,56
748,23	0,17
748,41	-5,01
748,59	-0,14
748,77	1,23
748,96	5,73
749,14	6,61
749,32	12,02
749,50	5,98
749,69	13,20
749,87	7,95
750,05	12,61
750,23	7,46
750,41	12,18
750,60	14,17
750,78	12,66
750,96	10,03
751,14	3,75
751,32	2,51
751,51	1,72
751,69	4,61
751,87	1,90
752,05	1,85
752,23	-2,36
752,42	0,59
752,60	0,41
752,78	2,00
752,96	1,35
753,14	2,57
753,33	0,46
753,51	3,95
753,69	1,12
753,87	0,44
754,05	-1,43
754,23	2,95
754,42	2,36
754,60	-4,08
754,78	-0,01
754,96	-0,35
755,14	1,72
755,32	-1,14
755,51	-1,07
755,69	-1,24
755,87	-0,53
756,05	5,85
756,23	-0,48
756,41	-0,18
756,60	2,53
756,78	-0,18
756,96	-5,69
757,14	0,38
757,32	-1,76
757,50	-1,39
757,68	-0,58
757,87	-0,42
758,05	6,21
758,23	4,65
758,41	1,46
758,59	-1,39
758,77	1,62
758,95	0,50
759,14	2,31
759,32	-0,20
759,50	0,22
759,68	2,95
759,86	3,05
760,04	0,86
760,22	6,44
760,40	2,00
760,59	2,00
760,77	3,17
760,95	1,82
761,13	5,51
761,31	-2,32
761,49	0,98
761,67	1,65
761,85	6,01
762,03	11,73
762,22	28,11
762,40	40,52
762,58	58,07
762,76	61,67
762,94	55,51
763,12	46,10
763,30	30,87
763,48	20,18
763,66	13,33
763,84	11,35
764,02	13,35
764,21	3,81
764,39	1,04
764,57	1,15
764,75	2,99
764,93	4,58
765,11	10,19
765,29	15,26
765,47	16,20
765,65	21,98
765,83	21,09
766,01	20,52
766,19	11,49
766,37	7,22
766,56	4,15
766,74	3,49
766,92	1,56
767,10	1,09
767,28	0,78
767,46	0,97
767,64	1,37
767,82	1,24
768,00	2,29
768,18	1,11
768,36	4,16
768,54	6,02
768,72	11,41
768,90	8,65
769,08	15,17
769,26	12,27
769,44	9,04
769,62	3,73
769,80	3,05
769,98	6,15
770,16	0,75
770,34	1,48
770,52	4,86
770,71	4,18
770,89	3,05
771,07	2,92
771,25	13,15
771,43	17,73
771,61	15,74
771,79	26,28
771,97	15,94
772,15	11,11
772,33	11,88
772,51	5,27
772,69	2,18
772,87	2,49
773,05	4,00
773,23	0,20
773,41	1,22
773,59	2,86
773,77	0,10
773,95	-2,63
774,13	3,57
774,31	4,78
774,49	-1,02
774,67	3,17
774,85	-0,19
775,03	-4,59
775,21	2,26
775,39	2,67
775,57	4,78
775,75	3,29
775,93	4,85
776,10	-4,03
776,28	2,32
776,46	4,72
776,64	3,21
776,82	-0,52
777,00	-0,26
777,18	3,21
777,36	-1,16
777,54	-0,34
777,72	0,40
777,90	2,56
778,08	0,07
778,26	3,75
778,44	2,51
778,62	-0,89
778,80	7,23
778,98	-1,14
779,16	-0,85
779,34	3,82
779,52	4,47
779,70	1,94
779,88	3,23
780,05	1,37
780,23	0,04
780,41	4,35
780,59	-1,79
780,77	0,14
780,95	0,33
781,13	-2,05
781,31	2,91
781,49	2,20
781,67	1,79
781,85	-0,52
782,03	2,70
782,21	0,88
782,39	-2,09
782,56	-1,12
782,74	3,53
782,92	1,72
783,10	3,70
783,28	2,43
783,46	3,14
783,64	-0,40
783,82	-1,14
784,00	1,19
784,18	2,41
784,35	0,61
784,53	-3,03
784,71	1,31
784,89	-0,15
785,07	-0,73
785,25	6,41
785,43	1,31
785,61	1,86
785,79	0,35
785,96	-0,19
786,14	4,26
786,32	2,48
786,50	4,19
786,68	0,34
786,86	-0,94
787,04	1,19
787,22	-4,26
787,39	0,03
787,57	2,23
787,75	2,37
787,93	-0,49
788,11	4,70
788,29	4,36
788,47	2,46
788,65	1,81
788,82	2,31
789,00	2,09
789,18	4,55
789,36	2,05
789,54	0,65
789,72	1,51
789,89	-2,80
790,07	3,01
790,25	2,54
790,43	2,24
790,61	0,59
790,79	4,37
790,96	-0,44
791,14	4,11
791,32	2,45
791,50	1,75
791,68	0,24
791,86	-0,01
792,03	1,75
792,21	1,85
792,39	1,98
792,57	1,29
792,75	3,07
792,93	0,14
793,10	2,00
793,28	0,15
793,46	4,38
793,64	7,88
793,82	4,75
793,99	13,03
794,17	14,94
794,35	9,06
794,53	9,95
794,71	5,91
794,88	2,54
795,06	7,46
795,24	1,51
795,42	3,10
795,60	4,67
795,77	3,10
795,95	2,33
796,13	1,08
796,31	3,95
796,49	0,51
796,66	-4,17
796,84	0,83
797,02	3,00
797,20	3,58
797,37	-1,20
797,55	-2,34
797,73	1,48
797,91	0,10
798,08	3,77
798,26	3,24
798,44	4,14
798,62	-1,29
798,80	2,74
798,97	3,09
799,15	4,67
799,33	0,38
799,51	4,42
799,68	5,37
799,86	9,19
800,04	5,49
800,22	10,71
800,39	8,54
800,57	11,87
800,75	12,33
800,93	13,16
801,10	9,86
801,28	8,82
801,46	0,81
801,63	1,31
801,81	6,31
801,99	0,72
802,17	3,64
802,34	2,85
802,52	2,22
802,70	1,21
802,88	3,24
803,05	0,17
803,23	4,17
803,41	3,05
803,58	-2,89
803,76	4,14
803,94	3,14
804,12	1,70
804,29	0,47
804,47	5,54
804,65	0,03
804,82	2,08
805,00	1,57
805,18	1,76
805,35	0,96
805,53	1,14
805,71	1,07
805,89	2,53
806,06	3,12
806,24	0,97
806,42	4,49
806,59	-0,78
806,77	0,07
806,95	0,60
807,12	1,47
807,30	1,43
807,48	0,31
807,65	5,00
807,83	3,40
808,01	6,65
808,18	3,33
808,36	3,18
808,54	0,82
808,71	3,60
808,89	5,07
809,07	6,06
809,24	8,17
809,42	17,25
809,60	16,05
809,77	12,92
809,95	17,36
810,13	20,63
810,30	28,35
810,48	37,49
810,66	44,86
810,83	51,12
811,01	48,25
811,18	35,99
811,36	32,47
811,54	21,51
811,71	9,87
811,89	12,07
812,07	4,39
812,24	7,11
812,42	4,76
812,59	7,48
812,77	2,67
812,95	3,61
813,12	-0,54
813,30	4,50
813,48	5,46
813,65	0,99
813,83	1,43
814,00	1,14
814,18	1,90
814,36	-1,68
814,53	2,82
814,71	5,71
814,88	4,41
815,06	3,71
815,24	5,62
815,41	3,44
815,59	4,97
815,76	4,20
815,94	6,50
816,12	6,50
816,29	5,26
816,47	7,53
816,64	18,34
816,82	56,38
817,00	140,29
817,17	257,41
817,35	402,95
817,52	486,73
817,70	512,93
817,87	488,89
818,05	491,72
818,23	526,51
818,40	672,72
818,58	819,35
818,75	897,91
818,93	833,08
819,10	706,75
819,28	500,48
819,46	323,28
819,63	217,12
819,81	174,06
819,98	134,49
820,16	108,22
820,33	89,01
820,51	71,28
820,68	55,46
820,86	44,71
821,03	32,72
821,21	26,16
821,39	20,80
821,56	15,71
821,74	16,92
821,91	10,06
822,09	7,92
822,26	4,52
822,44	4,90
822,61	1,61
822,79	7,67
822,96	4,79
823,14	0,02
823,31	4,14
823,49	2,47
823,66	4,44
823,84	5,86
824,01	1,97
824,19	5,54
824,36	3,37
824,54	4,11
824,71	4,92
824,89	1,05
825,06	1,16
825,24	1,81
825,41	6,46
825,59	8,44
825,76	7,90
825,94	10,15
826,11	7,36
826,29	4,07
826,46	4,79
826,64	1,77
826,81	5,35
826,99	4,62
827,16	5,22
827,34	2,45
827,51	0,69
827,69	7,03
827,86	2,68
828,04	1,52
828,21	1,43
828,39	1,85
828,56	0,92
828,74	1,24
828,91	2,35
829,09	2,07
829,26	-0,17
829,43	0,33
829,61	2,17
829,78	0,31
829,96	4,30
830,13	3,56
830,31	2,68
830,48	6,12
830,66	1,77
830,83	2,84
831,01	3,37
831,18	3,30
831,35	0,88
831,53	1,30
831,70	3,36
831,88	3,00
832,05	0,73
832,23	2,49
832,40	3,78
832,57	2,83
832,75	2,89
832,92	2,97
833,10	0,20
833,27	3,26
833,45	5,24
833,62	0,70
833,79	1,60
833,97	2,80
834,14	2,86
834,32	-0,27
834,49	4,09
834,66	0,47
834,84	2,82
835,01	1,43
835,19	-0,02
835,36	3,03
835,53	0,73
835,71	0,66
835,88	-1,00
836,06	3,76
836,23	1,28
836,40	1,75
836,58	-0,65
836,75	3,21
836,93	-2,74
837,10	3,72
837,27	-1,34
837,45	5,45
837,62	2,46
837,79	-1,07
837,97	2,80
838,14	3,35
838,32	0,38
838,49	0,29
838,66	0,27
838,84	4,56
839,01	1,89
839,18	0,72
839,36	3,13
839,53	2,21
839,70	3,49
839,88	8,21
840,05	8,82
840,23	8,90
840,40	10,26
840,57	7,68
840,75	4,42
840,92	5,20
841,09	8,60
841,27	9,26
841,44	10,02
841,61	11,38
841,79	13,57
841,96	14,89
842,13	12,87
842,31	12,84
842,48	6,86
842,65	4,45
842,83	4,07
843,00	3,51
843,17	1,55
843,35	2,95
843,52	5,40
843,69	-0,58
843,86	5,69
844,04	1,33
844,21	3,55
844,38	2,66
844,56	3,46
844,73	0,68
844,90	4,60
845,08	0,50
845,25	3,00
845,42	5,03
845,60	-0,72
845,77	-2,43
845,94	4,85
846,11	0,11
846,29	3,59
846,46	-0,94
846,63	2,20
846,81	-0,88
846,98	1,27
847,15	2,39
847,32	-0,11
847,50	-0,62
847,67	2,46
847,84	-0,02
848,01	0,49
848,19	2,20
848,36	1,19
848,53	-2,47
848,71	1,63
848,88	-2,88
849,05	2,54
849,22	-1,19
849,40	2,05
849,57	3,86
849,74	4,10
849,91	5,02
850,09	-1,66
850,26	1,30
850,43	4,29
850,60	3,04
850,78	6,23
850,95	0,43
851,12	6,83
851,29	3,51
851,47	3,82
851,64	6,64
851,81	5,48
851,98	2,52
852,15	5,18
852,33	2,27
852,50	1,57
852,67	6,68
852,84	4,14
853,02	6,23
853,19	0,51
853,36	0,65
853,53	0,94
853,70	2,52
853,88	2,11
854,05	2,86
854,22	4,43
854,39	3,32
854,56	4,50
854,74	3,17
854,91	0,42
855,08	0,99
855,25	5,14
855,42	0,47
855,60	2,53
855,77	-0,15
855,94	4,41
856,11	0,42
856,28	5,98
856,46	-2,05
856,63	-0,50
856,80	0,96
856,97	3,74
857,14	4,15
857,31	2,30
857,49	1,13
857,66	6,16
857,83	0,91
858,00	3,09
858,17	0,43
858,34	3,66
858,52	0,82
858,69	0,11
858,86	2,96
859,03	2,24
859,20	2,52
859,37	4,69
859,55	1,95
859,72	0,97
859,89	1,98
860,06	4,02
860,23	-1,62
860,40	-0,91
860,57	4,47
860,75	1,85
860,92	-2,94
861,09	-1,19
861,26	1,95
861,43	3,42
861,60	-0,69
861,77	-1,25
861,95	0,47
862,12	0,52
862,29	2,08
862,46	3,49
862,63	3,86
862,80	-1,14
862,97	-0,35
863,14	1,20
863,31	3,18
863,49	4,39
863,66	3,88
863,83	3,51
864,00	-1,47
864,17	0,59
864,34	5,54
864,51	4,58
864,68	0,59
864,85	-0,92
865,02	3,29
865,20	-2,17
865,37	5,70
865,54	2,90
865,71	2,52
865,88	-2,55
866,05	4,59
866,22	4,08
866,39	-2,12
866,56	-0,84
866,73	-3,02
866,90	-0,49
867,07	3,35
867,25	1,13
867,42	1,34
867,59	0,34
867,76	3,09
867,93	3,21
868,10	3,51
868,27	7,22
868,44	3,99
868,61	0,58
868,78	0,40
868,95	2,56
869,12	2,73
869,29	-0,09
869,46	-3,00
869,63	2,81
869,80	1,55
869,97	3,55
870,14	2,45
870,32	3,70
870,49	-0,20
870,66	1,82
870,83	4,82
871,00	2,88
871,17	4,69
871,34	2,99
871,51	-1,09
871,68	2,74
871,85	3,92
872,02	-1,40
872,19	2,94
872,36	-0,11
872,53	4,08
872,70	1,51
872,87	6,45
873,04	1,39
873,21	-3,29
873,38	-0,64
873,55	2,78
873,72	2,27
873,89	3,01
874,06	-2,87
874,23	1,20
874,40	2,58
874,57	0,37
874,74	-2,06
874,91	1,30
875,08	2,62
875,25	3,25
875,42	-0,43
875,59	0,64
875,76	-1,28
875,93	1,19
876,10	4,78
876,27	4,26
876,44	3,10
876,61	1,18
876,78	2,48
876,95	3,52
877,12	1,10
877,29	0,81
877,46	2,55
877,62	2,49
877,79	-2,51
877,96	5,43
878,13	-1,87
878,30	0,97
878,47	4,05
878,64	2,99
878,81	-1,03
878,98	0,14
879,15	2,09
879,32	2,41
879,49	4,62
879,66	4,12
879,83	4,85
880,00	3,26
880,17	3,36
880,34	2,85
880,51	2,45
880,67	3,61
880,84	5,15
881,01	-0,69
881,18	0,08
881,35	1,19
881,52	0,59
881,69	3,26
881,86	-0,33
882,03	0,94
882,20	4,60
882,37	0,78
882,54	2,29
882,70	5,41
882,87	6,60
883,04	5,85
883,21	5,40
883,38	3,12
883,55	0,32
883,72	0,74
883,89	0,46
884,06	3,73
884,23	0,95
884,39	1,71
884,56	5,05
884,73	1,97
884,90	5,25
885,07	2,04
885,24	-0,01
885,41	1,95
885,58	5,67
885,74	2,34
885,91	2,09
886,08	3,80
886,25	4,46
886,42	-1,07
886,59	-0,17
886,76	1,90
886,93	-5,87
887,09	0,72
887,26	0,98
887,43	3,23
887,60	0,79
887,77	2,44
887,94	0,98
888,10	2,03
888,27	2,65
888,44	0,98
888,61	7,58
888,78	1,98
888,95	4,33
889,12	2,11
889,28	1,40
889,45	0,31
889,62	3,82
889,79	-0,46
889,96	3,45
890,13	4,67
890,29	3,16
890,46	0,42
890,63	2,99
890,80	3,15
890,97	-0,26
891,13	2,72
891,30	5,42
891,47	0,64
891,64	0,32
891,81	5,65
891,98	2,86
892,14	3,36
892,31	2,80
892,48	3,00
892,65	-0,80
892,82	1,79
892,98	0,63
893,15	1,98
893,32	1,79
>>>>>End Processed Spectral Data<<<<<