SpectraSuite Datei
++++++++++++++++++++++++++++++++++++
Datum: Mon Mar 05 10:36:14 CET 2018
Benutzer: Admin
Dark-Spektrum vorhanden: Ja
Referenz-Spektrum vorhanden: Ja
Zahl der probierten Teilspektren: 1
Spektrometer: USB4F05832
Integrationszeit (usec): 7000 (USB4F05832)
Spektren Durchschnitt berechnet: 570 (USB4F05832)
Boxcar Glâ€°ttung: 0 (USB4F05832)
Dunkelstromkorrektur: Nein (USB4F05832)
Puls/Lampe aktiviert: Nein (USB4F05832)
Correct for Detector Non-linearity: Nein (USB4F05832)
Streulichtkorrektur: Nein (USB4F05832)
Anzahl Pixel in verarbeitetem Spektrum: 3648
>>>>>Begin Processed Spectral Data<<<<<
177,54	-3,31
177,75	-3,31
177,97	-3,31
178,19	-1,12
178,41	-2,62
178,63	4,60
178,85	0,48
179,07	3,41
179,29	1,53
179,51	-1,78
179,73	2,73
179,95	2,12
180,17	0,24
180,39	0,71
180,61	-4,91
180,83	1,65
181,05	-2,40
181,27	2,49
181,49	8,91
181,71	4,94
181,92	5,66
182,14	6,35
182,36	1,48
182,58	9,39
182,80	4,12
183,02	3,26
183,24	7,05
183,46	7,16
183,68	3,47
183,90	7,46
184,12	6,31
184,34	5,60
184,56	6,31
184,78	6,13
185,00	5,78
185,21	8,97
185,43	3,75
185,65	6,87
185,87	4,47
186,09	9,73
186,31	5,09
186,53	2,00
186,75	9,40
186,97	5,36
187,19	5,87
187,41	5,75
187,63	8,19
187,84	5,43
188,06	6,87
188,28	6,48
188,50	2,86
188,72	7,88
188,94	7,63
189,16	3,85
189,38	7,59
189,60	9,26
189,82	7,75
190,03	6,66
190,25	3,97
190,47	6,53
190,69	4,28
190,91	9,58
191,13	8,72
191,35	9,83
191,57	5,09
191,79	3,41
192,01	4,28
192,22	8,71
192,44	8,43
192,66	9,95
192,88	8,14
193,10	8,92
193,32	4,50
193,54	3,95
193,76	6,53
193,98	5,83
194,19	4,46
194,41	6,58
194,63	6,88
194,85	10,99
195,07	7,68
195,29	5,53
195,51	9,25
195,73	10,93
195,94	9,35
196,16	9,37
196,38	7,51
196,60	7,27
196,82	8,29
197,04	6,17
197,26	5,71
197,48	5,75
197,69	6,48
197,91	6,42
198,13	4,35
198,35	9,02
198,57	10,64
198,79	6,41
199,01	7,86
199,22	8,23
199,44	9,22
199,66	7,90
199,88	8,59
200,10	6,19
200,32	2,64
200,54	9,47
200,75	6,97
200,97	4,62
201,19	5,54
201,41	6,99
201,63	6,05
201,85	8,99
202,06	12,83
202,28	2,70
202,50	4,95
202,72	6,53
202,94	10,26
203,16	9,78
203,38	7,52
203,59	7,38
203,81	5,40
204,03	10,52
204,25	11,01
204,47	9,56
204,69	4,74
204,90	13,73
205,12	9,56
205,34	8,31
205,56	3,31
205,78	8,54
206,00	6,40
206,21	8,61
206,43	5,38
206,65	7,84
206,87	9,47
207,09	5,94
207,30	3,00
207,52	0,37
207,74	2,96
207,96	11,12
208,18	9,96
208,40	8,08
208,61	9,45
208,83	7,16
209,05	6,69
209,27	8,07
209,49	8,75
209,70	7,13
209,92	7,14
210,14	5,97
210,36	5,81
210,58	9,58
210,79	6,62
211,01	8,83
211,23	3,56
211,45	6,73
211,67	11,34
211,88	6,77
212,10	6,87
212,32	7,57
212,54	5,18
212,76	6,38
212,97	8,45
213,19	9,23
213,41	9,41
213,63	10,12
213,85	6,52
214,06	11,65
214,28	8,19
214,50	9,65
214,72	3,73
214,94	6,01
215,15	5,94
215,37	6,52
215,59	5,13
215,81	7,29
216,02	8,66
216,24	8,27
216,46	8,39
216,68	9,21
216,90	5,53
217,11	6,87
217,33	6,16
217,55	4,69
217,77	8,39
217,98	7,72
218,20	11,87
218,42	9,22
218,64	7,74
218,85	6,95
219,07	8,07
219,29	8,16
219,51	7,44
219,73	5,88
219,94	11,54
220,16	7,73
220,38	5,39
220,60	6,95
220,81	5,30
221,03	8,18
221,25	10,41
221,47	11,53
221,68	8,09
221,90	8,34
222,12	9,83
222,34	9,32
222,55	8,45
222,77	10,31
222,99	8,90
223,21	7,90
223,42	9,40
223,64	11,39
223,86	9,11
224,08	6,76
224,29	9,84
224,51	8,27
224,73	9,72
224,94	10,78
225,16	6,89
225,38	8,08
225,60	11,55
225,81	11,01
226,03	8,84
226,25	10,53
226,47	10,35
226,68	12,13
226,90	7,86
227,12	10,49
227,33	10,15
227,55	9,77
227,77	14,98
227,99	6,86
228,20	7,80
228,42	10,88
228,64	11,86
228,86	14,28
229,07	16,90
229,29	16,47
229,51	14,30
229,72	12,10
229,94	13,21
230,16	14,22
230,38	12,10
230,59	11,29
230,81	8,34
231,03	7,32
231,24	8,34
231,46	8,39
231,68	8,78
231,89	12,20
232,11	8,87
232,33	10,50
232,55	6,83
232,76	6,32
232,98	5,66
233,20	9,27
233,41	8,52
233,63	7,51
233,85	4,10
234,06	6,33
234,28	7,86
234,50	5,48
234,71	6,38
234,93	8,14
235,15	8,48
235,37	7,33
235,58	6,09
235,80	10,10
236,02	8,59
236,23	9,47
236,45	7,94
236,67	10,51
236,88	9,67
237,10	8,18
237,32	10,05
237,53	10,96
237,75	9,83
237,97	6,23
238,18	10,32
238,40	10,66
238,62	8,36
238,83	10,25
239,05	9,10
239,27	7,53
239,48	7,49
239,70	6,27
239,92	10,05
240,13	9,41
240,35	7,94
240,57	7,52
240,78	11,82
241,00	8,52
241,22	8,13
241,43	11,28
241,65	6,98
241,87	8,21
242,08	9,18
242,30	10,35
242,52	5,96
242,73	10,09
242,95	7,78
243,16	9,46
243,38	7,98
243,60	11,91
243,81	6,65
244,03	5,94
244,25	9,14
244,46	10,41
244,68	9,83
244,90	12,90
245,11	11,15
245,33	9,77
245,55	7,38
245,76	11,25
245,98	11,13
246,19	10,28
246,41	9,56
246,63	5,42
246,84	10,99
247,06	11,25
247,28	8,89
247,49	10,14
247,71	11,64
247,92	12,32
248,14	8,15
248,36	6,31
248,57	7,40
248,79	8,35
249,01	8,36
249,22	9,87
249,44	9,52
249,65	9,60
249,87	9,54
250,09	13,37
250,30	12,75
250,52	9,09
250,73	12,69
250,95	10,34
251,17	13,82
251,38	5,55
251,60	11,04
251,81	12,15
252,03	8,89
252,25	14,52
252,46	11,27
252,68	13,79
252,89	8,18
253,11	12,36
253,33	14,38
253,54	11,16
253,76	10,15
253,97	11,92
254,19	11,69
254,41	9,04
254,62	7,72
254,84	8,33
255,05	13,01
255,27	9,96
255,49	12,49
255,70	10,70
255,92	10,88
256,13	14,75
256,35	13,12
256,56	12,96
256,78	11,57
257,00	12,12
257,21	13,58
257,43	10,04
257,64	12,81
257,86	12,52
258,08	12,94
258,29	12,97
258,51	12,13
258,72	13,56
258,94	11,13
259,15	7,00
259,37	10,88
259,59	12,58
259,80	9,59
260,02	14,86
260,23	16,49
260,45	15,19
260,66	13,87
260,88	15,40
261,09	16,21
261,31	15,43
261,53	16,34
261,74	21,81
261,96	16,38
262,17	16,71
262,39	18,59
262,60	18,76
262,82	20,40
263,03	21,15
263,25	19,52
263,46	27,98
263,68	19,09
263,90	21,96
264,11	22,14
264,33	24,94
264,54	24,04
264,76	22,98
264,97	19,97
265,19	24,34
265,40	22,75
265,62	22,01
265,83	22,63
266,05	25,91
266,26	23,01
266,48	20,50
266,70	24,95
266,91	22,25
267,13	25,65
267,34	22,79
267,56	22,10
267,77	21,23
267,99	21,23
268,20	23,79
268,42	25,07
268,63	24,99
268,85	21,12
269,06	22,66
269,28	23,31
269,49	23,56
269,71	24,98
269,92	21,85
270,14	26,06
270,35	23,50
270,57	23,65
270,78	23,65
271,00	24,40
271,21	22,91
271,43	24,54
271,64	28,66
271,86	27,12
272,07	29,61
272,29	21,45
272,50	23,08
272,72	23,11
272,93	25,53
273,15	24,00
273,36	29,57
273,58	28,70
273,79	25,59
274,01	29,16
274,22	29,18
274,44	24,68
274,65	27,95
274,87	27,63
275,08	25,53
275,30	31,91
275,51	28,51
275,73	26,86
275,94	30,85
276,16	27,44
276,37	29,33
276,59	29,43
276,80	27,63
277,02	29,69
277,23	25,91
277,45	25,64
277,66	30,74
277,88	31,84
278,09	29,25
278,30	30,85
278,52	28,43
278,73	32,23
278,95	27,39
279,16	28,14
279,38	23,42
279,59	30,40
279,81	28,25
280,02	27,00
280,24	28,47
280,45	27,49
280,67	24,02
280,88	29,68
281,09	27,71
281,31	27,13
281,52	26,05
281,74	29,37
281,95	29,82
282,17	25,44
282,38	26,31
282,60	33,54
282,81	28,88
283,02	34,41
283,24	42,24
283,45	48,54
283,67	45,54
283,88	45,82
284,10	43,18
284,31	36,92
284,53	32,44
284,74	29,41
284,95	24,55
285,17	27,45
285,38	24,07
285,60	23,98
285,81	23,40
286,03	27,49
286,24	26,35
286,45	24,14
286,67	28,34
286,88	28,04
287,10	28,75
287,31	26,34
287,53	26,79
287,74	27,77
287,95	27,21
288,17	26,44
288,38	25,21
288,60	26,47
288,81	26,86
289,02	31,09
289,24	27,02
289,45	28,48
289,67	33,72
289,88	27,18
290,10	30,25
290,31	28,31
290,52	26,90
290,74	27,47
290,95	25,73
291,17	30,30
291,38	26,85
291,59	26,10
291,81	25,10
292,02	30,00
292,24	27,97
292,45	29,46
292,66	28,54
292,88	25,97
293,09	27,16
293,31	26,57
293,52	25,11
293,73	26,61
293,95	23,31
294,16	26,28
294,37	27,37
294,59	25,42
294,80	23,98
295,02	25,36
295,23	23,30
295,44	25,36
295,66	23,93
295,87	25,11
296,09	23,84
296,30	26,05
296,51	21,24
296,73	18,40
296,94	21,85
297,15	25,85
297,37	19,81
297,58	16,47
297,79	15,46
298,01	17,24
298,22	15,88
298,44	12,18
298,65	14,87
298,86	17,05
299,08	10,60
299,29	15,70
299,50	19,48
299,72	16,55
299,93	9,56
300,14	17,83
300,36	14,79
300,57	11,44
300,79	13,76
301,00	14,42
301,21	15,26
301,43	15,31
301,64	15,23
301,85	19,55
302,07	14,12
302,28	14,35
302,49	14,88
302,71	16,42
302,92	16,61
303,13	21,24
303,35	27,86
303,56	40,59
303,77	45,82
303,99	48,15
304,20	39,84
304,41	35,95
304,63	25,55
304,84	21,91
305,05	13,15
305,27	17,69
305,48	14,08
305,69	18,26
305,91	14,86
306,12	17,38
306,33	12,71
306,55	14,33
306,76	15,95
306,97	17,07
307,19	18,09
307,40	13,57
307,61	14,21
307,82	20,31
308,04	17,21
308,25	19,03
308,46	19,34
308,68	21,31
308,89	17,90
309,10	18,92
309,32	11,77
309,53	15,72
309,74	17,93
309,96	17,63
310,17	20,22
310,38	13,76
310,59	15,50
310,81	18,65
311,02	16,16
311,23	17,30
311,45	19,42
311,66	17,47
311,87	20,36
312,09	12,47
312,30	19,67
312,51	18,93
312,72	17,73
312,94	17,75
313,15	17,21
313,36	19,95
313,58	21,18
313,79	17,64
314,00	16,50
314,21	13,10
314,43	14,60
314,64	14,25
314,85	15,32
315,06	15,41
315,28	16,69
315,49	16,51
315,70	21,14
315,92	18,45
316,13	20,05
316,34	16,94
316,55	16,06
316,77	18,39
316,98	16,59
317,19	18,19
317,40	19,32
317,62	19,32
317,83	17,09
318,04	20,90
318,25	16,22
318,47	19,10
318,68	17,10
318,89	17,50
319,11	17,80
319,32	18,33
319,53	17,66
319,74	19,91
319,96	20,48
320,17	19,32
320,38	20,54
320,59	19,88
320,81	24,92
321,02	19,30
321,23	19,91
321,44	19,57
321,65	22,34
321,87	18,59
322,08	17,23
322,29	20,14
322,50	20,98
322,72	19,92
322,93	23,47
323,14	26,22
323,35	23,04
323,57	24,80
323,78	29,19
323,99	30,73
324,20	28,94
324,41	30,11
324,63	27,68
324,84	27,42
325,05	33,14
325,26	32,29
325,48	32,00
325,69	32,15
325,90	31,18
326,11	27,32
326,32	30,22
326,54	29,02
326,75	30,12
326,96	39,67
327,17	37,93
327,39	44,95
327,60	50,70
327,81	60,78
328,02	80,70
328,23	121,52
328,45	251,15
328,66	798,50
328,87	2052,12
329,08	3555,55
329,29	4999,95
329,51	6071,08
329,72	6146,35
329,93	5508,96
330,14	4611,52
330,35	3373,90
330,56	2232,79
330,78	1280,61
330,99	744,93
331,20	393,94
331,41	185,18
331,62	95,02
331,84	63,41
332,05	50,70
332,26	51,55
332,47	45,77
332,68	42,04
332,90	39,09
333,11	38,90
333,32	32,38
333,53	34,13
333,74	34,71
333,95	31,38
334,17	31,98
334,38	27,45
334,59	27,02
334,80	27,88
335,01	28,91
335,22	24,69
335,44	25,67
335,65	26,78
335,86	27,32
336,07	29,00
336,28	24,07
336,49	26,24
336,71	27,17
336,92	21,34
337,13	25,63
337,34	22,00
337,55	24,78
337,76	27,33
337,97	24,53
338,19	26,10
338,40	28,23
338,61	24,25
338,82	23,53
339,03	24,67
339,24	23,77
339,45	23,54
339,67	22,30
339,88	20,56
340,09	22,01
340,30	26,03
340,51	22,02
340,72	23,50
340,93	20,85
341,15	24,95
341,36	25,11
341,57	28,76
341,78	29,05
341,99	30,29
342,20	27,07
342,41	26,60
342,62	25,09
342,84	22,24
343,05	20,47
343,26	22,38
343,47	22,32
343,68	24,04
343,89	19,04
344,10	27,91
344,31	24,67
344,53	21,84
344,74	27,11
344,95	23,71
345,16	21,72
345,37	20,27
345,58	24,78
345,79	21,49
346,00	22,12
346,21	23,35
346,42	21,36
346,64	23,41
346,85	27,44
347,06	22,37
347,27	25,59
347,48	22,67
347,69	21,22
347,90	23,04
348,11	21,10
348,32	21,96
348,53	25,03
348,75	24,42
348,96	21,47
349,17	24,72
349,38	28,97
349,59	25,48
349,80	22,21
350,01	20,70
350,22	23,52
350,43	24,63
350,64	26,24
350,85	21,86
351,06	26,85
351,28	22,57
351,49	21,42
351,70	23,52
351,91	27,86
352,12	25,97
352,33	25,06
352,54	24,63
352,75	22,71
352,96	25,55
353,17	24,76
353,38	25,35
353,59	22,22
353,80	22,06
354,01	24,63
354,22	23,03
354,44	23,11
354,65	25,56
354,86	26,65
355,07	26,14
355,28	30,19
355,49	26,39
355,70	29,26
355,91	26,81
356,12	23,77
356,33	29,96
356,54	23,30
356,75	22,39
356,96	29,11
357,17	23,92
357,38	33,85
357,59	35,91
357,80	37,64
358,01	44,77
358,22	47,67
358,43	44,01
358,64	46,25
358,85	41,72
359,07	37,09
359,28	36,87
359,49	25,47
359,70	31,79
359,91	22,50
360,12	26,22
360,33	23,47
360,54	24,76
360,75	25,43
360,96	23,91
361,17	25,29
361,38	24,77
361,59	24,12
361,80	25,74
362,01	24,54
362,22	26,08
362,43	26,33
362,64	21,61
362,85	27,92
363,06	25,24
363,27	25,41
363,48	30,48
363,69	26,00
363,90	24,43
364,11	25,58
364,32	25,94
364,53	26,09
364,74	30,21
364,95	22,67
365,16	27,65
365,37	24,87
365,58	28,18
365,79	31,81
366,00	27,94
366,21	27,04
366,42	26,01
366,63	27,98
366,84	29,09
367,05	26,10
367,26	31,99
367,47	23,54
367,68	24,51
367,89	30,83
368,10	31,37
368,31	26,70
368,52	26,10
368,73	29,88
368,94	27,87
369,15	24,87
369,36	27,12
369,57	29,87
369,78	29,31
369,99	28,25
370,20	26,46
370,40	33,08
370,61	24,81
370,82	29,29
371,03	28,04
371,24	26,82
371,45	31,74
371,66	31,36
371,87	26,29
372,08	27,26
372,29	25,34
372,50	30,01
372,71	24,96
372,92	28,67
373,13	34,99
373,34	27,51
373,55	28,70
373,76	27,87
373,97	27,24
374,18	31,33
374,39	25,46
374,60	28,15
374,81	29,91
375,01	30,49
375,22	29,22
375,43	29,65
375,64	31,35
375,85	26,70
376,06	27,04
376,27	27,78
376,48	31,29
376,69	26,89
376,90	26,98
377,11	30,42
377,32	28,76
377,53	28,36
377,74	28,33
377,94	26,94
378,15	32,82
378,36	34,84
378,57	32,42
378,78	27,56
378,99	33,27
379,20	30,50
379,41	29,19
379,62	34,00
379,83	33,27
380,04	27,44
380,25	31,64
380,45	30,86
380,66	30,77
380,87	30,58
381,08	30,53
381,29	29,86
381,50	31,47
381,71	29,23
381,92	34,34
382,13	28,69
382,34	31,74
382,55	29,52
382,75	31,76
382,96	26,72
383,17	31,06
383,38	27,92
383,59	25,07
383,80	28,36
384,01	31,41
384,22	27,86
384,43	29,99
384,63	27,71
384,84	24,95
385,05	27,73
385,26	30,37
385,47	31,25
385,68	30,28
385,89	30,54
386,10	32,04
386,30	32,86
386,51	33,72
386,72	27,35
386,93	34,93
387,14	34,60
387,35	30,55
387,56	30,82
387,77	30,87
387,97	28,99
388,18	32,58
388,39	31,65
388,60	31,18
388,81	30,51
389,02	33,60
389,23	30,53
389,43	34,59
389,64	28,17
389,85	27,22
390,06	35,56
390,27	33,65
390,48	30,42
390,69	34,12
390,89	33,62
391,10	35,81
391,31	37,66
391,52	36,88
391,73	44,07
391,94	44,08
392,14	39,00
392,35	36,40
392,56	39,87
392,77	36,30
392,98	32,25
393,19	34,82
393,39	35,69
393,60	38,39
393,81	38,29
394,02	35,98
394,23	38,72
394,44	34,47
394,64	34,79
394,85	36,84
395,06	35,63
395,27	32,97
395,48	35,05
395,69	34,32
395,89	29,38
396,10	33,85
396,31	29,36
396,52	31,88
396,73	26,02
396,93	33,19
397,14	29,68
397,35	32,13
397,56	28,27
397,77	28,55
397,97	31,37
398,18	31,33
398,39	27,27
398,60	31,64
398,81	32,08
399,01	28,86
399,22	31,10
399,43	29,46
399,64	31,63
399,85	34,40
400,05	30,34
400,26	30,71
400,47	29,69
400,68	27,40
400,89	34,17
401,09	30,50
401,30	31,55
401,51	35,21
401,72	32,53
401,93	31,75
402,13	29,66
402,34	29,95
402,55	40,49
402,76	36,44
402,96	39,96
403,17	40,66
403,38	45,63
403,59	45,77
403,80	46,24
404,00	40,09
404,21	40,86
404,42	39,80
404,63	32,42
404,83	33,09
405,04	35,14
405,25	31,77
405,46	35,24
405,66	32,57
405,87	36,89
406,08	35,25
406,29	34,69
406,49	34,60
406,70	35,56
406,91	35,99
407,12	35,53
407,32	39,71
407,53	39,18
407,74	41,64
407,95	48,96
408,15	48,95
408,36	52,52
408,57	58,23
408,78	52,67
408,98	52,53
409,19	43,21
409,40	46,04
409,61	45,03
409,81	42,35
410,02	38,38
410,23	38,05
410,44	39,13
410,64	40,18
410,85	38,93
411,06	33,08
411,26	40,68
411,47	37,17
411,68	37,36
411,89	39,01
412,09	35,76
412,30	32,44
412,51	38,44
412,72	40,01
412,92	41,60
413,13	40,27
413,34	36,54
413,54	39,05
413,75	37,50
413,96	42,80
414,17	50,56
414,37	57,34
414,58	74,59
414,79	83,64
414,99	79,58
415,20	84,18
415,41	68,91
415,61	61,05
415,82	49,28
416,03	43,40
416,24	45,13
416,44	40,34
416,65	49,17
416,86	46,56
417,06	43,71
417,27	47,89
417,48	54,84
417,68	56,55
417,89	60,34
418,10	66,49
418,30	73,99
418,51	85,62
418,72	94,87
418,92	106,42
419,13	98,61
419,34	89,32
419,55	71,28
419,75	58,02
419,96	45,84
420,17	50,31
420,37	51,57
420,58	46,16
420,79	45,36
420,99	44,59
421,20	43,44
421,41	35,89
421,61	33,94
421,82	37,36
422,03	35,95
422,23	37,34
422,44	41,19
422,65	43,57
422,85	44,23
423,06	52,07
423,26	52,81
423,47	49,62
423,68	49,60
423,88	44,95
424,09	46,44
424,30	45,16
424,50	52,25
424,71	50,61
424,92	54,43
425,12	52,09
425,33	60,11
425,54	61,41
425,74	68,98
425,95	69,23
426,15	79,17
426,36	75,40
426,57	72,59
426,77	65,50
426,98	63,26
427,19	54,54
427,39	51,73
427,60	44,44
427,81	43,07
428,01	41,42
428,22	40,32
428,42	47,05
428,63	44,84
428,84	51,32
429,04	45,21
429,25	46,61
429,45	40,98
429,66	43,10
429,87	38,53
430,07	38,45
430,28	39,51
430,49	45,33
430,69	52,17
430,90	58,01
431,10	67,51
431,31	76,70
431,52	73,96
431,72	76,10
431,93	65,75
432,13	63,29
432,34	56,65
432,55	55,49
432,75	52,17
432,96	52,73
433,16	50,23
433,37	48,86
433,58	50,60
433,78	40,25
433,99	41,74
434,19	39,86
434,40	42,96
434,60	39,45
434,81	39,17
435,02	34,90
435,22	33,54
435,43	37,74
435,63	30,78
435,84	34,65
436,05	36,87
436,25	35,46
436,46	38,78
436,66	38,37
436,87	41,06
437,07	41,15
437,28	46,65
437,48	57,91
437,69	71,57
437,90	92,08
438,10	102,55
438,31	102,50
438,51	100,66
438,72	80,09
438,92	53,21
439,13	50,57
439,34	44,63
439,54	38,00
439,75	33,27
439,95	35,11
440,16	33,72
440,36	37,07
440,57	35,21
440,77	40,06
440,98	44,45
441,18	43,87
441,39	40,46
441,60	43,61
441,80	39,48
442,01	35,75
442,21	38,31
442,42	36,27
442,62	32,93
442,83	35,58
443,03	32,94
443,24	30,16
443,44	32,57
443,65	32,55
443,85	33,96
444,06	34,36
444,26	36,08
444,47	30,91
444,67	38,81
444,88	34,64
445,09	34,78
445,29	35,84
445,50	34,94
445,70	33,73
445,91	33,00
446,11	30,40
446,32	36,76
446,52	35,52
446,73	34,44
446,93	35,58
447,14	37,47
447,34	38,08
447,55	42,79
447,75	56,97
447,96	83,26
448,16	117,00
448,37	147,62
448,57	165,50
448,78	168,90
448,98	154,97
449,19	128,91
449,39	104,74
449,60	77,11
449,80	63,71
450,01	51,10
450,21	52,22
450,42	46,13
450,62	45,84
450,83	43,63
451,03	41,70
451,23	39,97
451,44	37,92
451,64	39,91
451,85	42,03
452,05	40,13
452,26	39,07
452,46	41,38
452,67	48,76
452,87	54,22
453,08	55,10
453,28	59,10
453,49	65,95
453,69	54,01
453,90	56,51
454,10	50,32
454,31	52,36
454,51	48,57
454,71	41,05
454,92	42,73
455,12	39,37
455,33	40,44
455,53	38,89
455,74	40,75
455,94	40,11
456,15	37,64
456,35	37,79
456,55	42,53
456,76	39,84
456,96	39,70
457,17	35,42
457,37	38,35
457,58	44,15
457,78	47,51
457,99	45,25
458,19	49,75
458,39	56,16
458,60	57,79
458,80	54,04
459,01	54,32
459,21	53,92
459,42	46,34
459,62	48,72
459,82	47,42
460,03	47,39
460,23	41,82
460,44	40,11
460,64	43,54
460,85	43,56
461,05	39,87
461,25	42,06
461,46	40,95
461,66	45,41
461,87	43,25
462,07	41,74
462,27	48,37
462,48	46,01
462,68	43,51
462,89	42,43
463,09	42,66
463,29	45,37
463,50	36,97
463,70	45,31
463,91	41,44
464,11	43,27
464,31	45,11
464,52	60,86
464,72	91,22
464,93	157,40
465,13	266,97
465,33	365,56
465,54	439,24
465,74	470,05
465,95	470,49
466,15	387,98
466,35	294,66
466,56	199,34
466,76	134,48
466,96	98,13
467,17	75,21
467,37	60,61
467,58	55,75
467,78	49,44
467,98	50,46
468,19	50,21
468,39	51,53
468,59	53,49
468,80	52,83
469,00	50,49
469,21	53,38
469,41	51,17
469,61	50,40
469,82	51,06
470,02	56,44
470,22	48,15
470,43	47,95
470,63	53,02
470,83	56,39
471,04	50,44
471,24	55,87
471,45	50,96
471,65	51,78
471,85	48,83
472,06	47,86
472,26	49,66
472,46	46,52
472,67	51,94
472,87	52,12
473,07	63,10
473,28	79,18
473,48	104,83
473,68	131,94
473,89	151,47
474,09	160,97
474,29	152,32
474,50	135,60
474,70	107,67
474,90	86,21
475,11	72,51
475,31	68,50
475,51	62,23
475,72	59,46
475,92	58,63
476,12	56,74
476,33	57,08
476,53	54,80
476,73	55,36
476,93	54,66
477,14	56,18
477,34	59,32
477,54	57,16
477,75	59,28
477,95	58,81
478,15	59,33
478,36	60,71
478,56	60,05
478,76	61,14
478,97	63,52
479,17	62,36
479,37	57,55
479,57	57,49
479,78	58,76
479,98	57,36
480,18	60,30
480,39	56,96
480,59	61,89
480,79	60,22
480,99	55,58
481,20	58,70
481,40	58,93
481,60	60,20
481,81	56,59
482,01	61,67
482,21	61,70
482,41	59,33
482,62	67,06
482,82	67,26
483,02	65,91
483,23	65,50
483,43	69,02
483,63	67,23
483,83	66,00
484,04	67,57
484,24	66,11
484,44	68,19
484,64	67,23
484,85	69,09
485,05	61,87
485,25	67,26
485,45	65,71
485,66	64,17
485,86	66,28
486,06	64,85
486,26	70,41
486,47	71,41
486,67	74,89
486,87	74,83
487,07	77,22
487,28	78,56
487,48	82,79
487,68	75,86
487,88	75,06
488,09	74,78
488,29	77,32
488,49	75,14
488,69	77,16
488,90	73,94
489,10	78,05
489,30	73,27
489,50	74,01
489,71	76,77
489,91	78,85
490,11	78,73
490,31	75,82
490,52	73,86
490,72	72,97
490,92	75,51
491,12	75,07
491,32	74,33
491,53	76,52
491,73	80,55
491,93	83,51
492,13	86,65
492,33	87,14
492,54	89,28
492,74	85,53
492,94	87,90
493,14	81,54
493,35	83,63
493,55	83,50
493,75	80,18
493,95	81,75
494,15	77,26
494,36	79,38
494,56	78,25
494,76	81,51
494,96	81,45
495,16	85,06
495,37	91,18
495,57	96,91
495,77	122,66
495,97	240,04
496,17	525,72
496,37	1002,07
496,58	1733,64
496,78	2450,56
496,98	3044,56
497,18	3256,96
497,38	3068,30
497,59	2554,89
497,79	1821,83
497,99	1175,21
498,19	727,45
498,39	469,34
498,59	312,34
498,80	220,86
499,00	176,49
499,20	144,39
499,40	129,03
499,60	118,85
499,80	106,50
500,01	104,53
500,21	88,34
500,41	88,73
500,61	86,15
500,81	93,92
501,01	85,83
501,22	87,34
501,42	85,68
501,62	83,19
501,82	86,50
502,02	88,89
502,22	88,72
502,42	90,06
502,63	95,18
502,83	92,54
503,03	91,14
503,23	96,60
503,43	94,81
503,63	94,43
503,83	98,78
504,04	93,96
504,24	97,24
504,44	93,18
504,64	87,95
504,84	89,57
505,04	91,96
505,24	90,00
505,44	89,89
505,65	87,58
505,85	85,30
506,05	88,85
506,25	85,61
506,45	85,22
506,65	86,32
506,85	88,65
507,05	88,54
507,26	91,27
507,46	92,98
507,66	92,27
507,86	91,13
508,06	86,18
508,26	88,95
508,46	91,54
508,66	95,10
508,86	98,41
509,06	98,16
509,27	102,95
509,47	99,77
509,67	97,15
509,87	103,04
510,07	96,06
510,27	94,58
510,47	94,63
510,67	96,58
510,87	91,94
511,07	89,81
511,28	93,82
511,48	93,60
511,68	95,74
511,88	99,83
512,08	93,47
512,28	101,26
512,48	101,45
512,68	105,67
512,88	113,12
513,08	154,23
513,28	232,76
513,48	347,63
513,68	516,75
513,89	688,35
514,09	793,98
514,29	830,76
514,49	766,22
514,69	634,06
514,89	461,93
515,09	321,67
515,29	229,85
515,49	176,13
515,69	143,70
515,89	126,50
516,09	118,94
516,29	112,26
516,49	108,45
516,69	105,08
516,89	109,66
517,09	106,08
517,29	106,59
517,50	111,97
517,70	107,19
517,90	105,77
518,10	109,06
518,30	110,45
518,50	111,80
518,70	105,91
518,90	104,95
519,10	108,94
519,30	105,07
519,50	103,91
519,70	100,25
519,90	109,68
520,10	105,28
520,30	109,98
520,50	104,45
520,70	104,28
520,90	99,27
521,10	100,99
521,30	104,44
521,50	103,59
521,70	100,70
521,90	102,66
522,10	104,82
522,30	98,40
522,50	103,21
522,70	105,45
522,90	108,74
523,10	106,01
523,30	107,48
523,50	107,07
523,70	103,90
523,90	109,82
524,10	106,99
524,30	108,47
524,50	110,15
524,70	111,93
524,90	112,40
525,10	117,17
525,30	116,69
525,50	112,83
525,70	117,54
525,90	114,46
526,10	113,93
526,30	112,18
526,50	109,34
526,70	111,58
526,90	109,24
527,10	108,25
527,30	114,12
527,50	111,55
527,70	111,80
527,90	111,10
528,10	110,49
528,30	112,32
528,50	110,72
528,70	109,35
528,90	109,99
529,10	108,46
529,30	113,18
529,50	112,52
529,70	117,17
529,90	118,85
530,10	114,62
530,29	116,04
530,49	112,79
530,69	114,96
530,89	112,15
531,09	114,44
531,29	114,69
531,49	112,95
531,69	114,91
531,89	113,39
532,09	118,21
532,29	111,80
532,49	114,89
532,69	114,91
532,89	112,20
533,09	112,81
533,29	116,23
533,49	109,41
533,68	118,72
533,88	119,10
534,08	120,11
534,28	120,50
534,48	117,95
534,68	118,22
534,88	118,62
535,08	118,25
535,28	124,26
535,48	126,36
535,68	122,53
535,88	122,26
536,08	122,33
536,27	120,62
536,47	121,31
536,67	122,95
536,87	121,63
537,07	123,22
537,27	123,49
537,47	128,70
537,67	121,81
537,87	125,25
538,07	125,60
538,27	127,14
538,46	127,11
538,66	127,35
538,86	124,27
539,06	121,78
539,26	125,94
539,46	120,92
539,66	122,68
539,86	124,01
540,06	127,13
540,25	125,12
540,45	130,74
540,65	134,48
540,85	132,92
541,05	132,86
541,25	133,28
541,45	128,49
541,65	126,85
541,85	126,23
542,04	129,92
542,24	128,10
542,44	135,95
542,64	139,08
542,84	139,90
543,04	138,00
543,24	137,41
543,43	137,70
543,63	138,95
543,83	138,17
544,03	138,09
544,23	139,13
544,43	140,49
544,63	136,70
544,82	138,04
545,02	137,48
545,22	139,10
545,42	142,29
545,62	136,56
545,82	135,91
546,02	138,25
546,21	131,90
546,41	137,33
546,61	134,19
546,81	137,83
547,01	135,24
547,21	141,12
547,40	138,21
547,60	144,46
547,80	146,23
548,00	143,76
548,20	149,29
548,40	156,15
548,59	157,10
548,79	160,22
548,99	166,40
549,19	162,98
549,39	165,57
549,59	167,35
549,78	171,59
549,98	174,05
550,18	176,28
550,38	179,33
550,58	181,95
550,77	188,74
550,97	185,30
551,17	193,23
551,37	190,54
551,57	197,15
551,76	200,37
551,96	205,06
552,16	210,18
552,36	207,61
552,56	215,30
552,75	218,76
552,95	218,39
553,15	224,32
553,35	229,14
553,55	224,04
553,74	230,64
553,94	224,13
554,14	226,68
554,34	228,65
554,54	236,83
554,73	234,88
554,93	233,70
555,13	237,30
555,33	237,84
555,53	232,09
555,72	235,69
555,92	239,21
556,12	239,03
556,32	238,37
556,51	243,96
556,71	245,12
556,91	247,44
557,11	254,08
557,30	252,77
557,50	255,19
557,70	254,61
557,90	256,08
558,10	268,62
558,29	265,23
558,49	266,94
558,69	274,58
558,89	278,20
559,08	288,53
559,28	292,07
559,48	291,60
559,68	294,78
559,87	295,41
560,07	301,69
560,27	305,96
560,47	308,12
560,66	311,62
560,86	311,45
561,06	315,51
561,25	316,56
561,45	319,29
561,65	324,80
561,85	320,93
562,04	332,44
562,24	345,45
562,44	349,94
562,64	355,76
562,83	367,81
563,03	381,20
563,23	398,29
563,42	414,44
563,62	424,24
563,82	433,50
564,02	445,49
564,21	442,73
564,41	449,66
564,61	450,51
564,80	464,21
565,00	467,20
565,20	482,70
565,40	496,05
565,59	519,40
565,79	544,19
565,99	580,67
566,18	682,40
566,38	1202,39
566,58	2799,51
566,78	5537,47
566,97	9343,85
567,17	14835,55
567,37	21053,15
567,56	25275,40
567,76	26670,26
567,96	25600,46
568,15	21692,36
568,35	16020,96
568,55	10399,88
568,74	6380,74
568,94	4183,31
569,14	2953,87
569,33	2203,17
569,53	1779,22
569,73	1524,90
569,92	1352,85
570,12	1269,38
570,32	1202,96
570,52	1157,84
570,71	1140,80
570,91	1121,66
571,11	1135,35
571,30	1163,67
571,50	1212,11
571,70	1258,86
571,89	1298,48
572,09	1349,91
572,28	1383,50
572,48	1421,54
572,68	1448,45
572,87	1485,63
573,07	1503,40
573,27	1506,48
573,46	1516,89
573,66	1535,73
573,86	1530,84
574,05	1543,28
574,25	1547,08
574,45	1531,35
574,64	1533,75
574,84	1534,39
575,04	1530,68
575,23	1532,84
575,43	1526,74
575,62	1517,90
575,82	1492,47
576,02	1476,69
576,21	1477,82
576,41	1477,28
576,61	1480,44
576,80	1447,65
577,00	1488,17
577,19	1506,53
577,39	1534,86
577,59	1561,41
577,78	1581,98
577,98	1625,44
578,18	1654,25
578,37	1682,01
578,57	1715,49
578,76	1731,66
578,96	1753,74
579,16	1782,29
579,35	1832,41
579,55	1861,73
579,74	1904,79
579,94	1955,45
580,14	2012,21
580,33	2072,67
580,53	2129,05
580,72	2184,97
580,92	2253,32
581,12	2314,84
581,31	2397,69
581,51	2498,21
581,70	2582,47
581,90	2706,33
582,10	2797,03
582,29	2926,67
582,49	3036,09
582,68	3164,32
582,88	3274,52
583,07	3508,60
583,27	4012,76
583,47	4770,67
583,66	5793,25
583,86	7043,93
584,05	8491,89
584,25	9780,49
584,44	10696,51
584,64	11275,16
584,84	11526,78
585,03	11142,52
585,23	10658,25
585,42	10332,30
585,62	10024,90
585,81	10025,17
586,01	10267,41
586,20	11052,94
586,40	12346,19
586,60	18827,59
586,79	64226,73
586,99	64219,19
587,18	64230,28
587,38	64222,07
587,57	64230,72
587,77	64223,47
587,96	64222,91
588,16	64221,80
588,35	64225,27
588,55	64217,21
588,75	64222,82
588,94	64217,53
589,14	64227,93
589,33	64224,08
589,53	64223,06
589,72	64223,88
589,92	64227,29
590,11	64220,06
590,31	64224,57
590,50	64218,04
590,70	64224,40
590,89	64219,94
591,09	64226,92
591,28	64220,96
591,48	64228,60
591,67	64221,70
591,87	64231,21
592,06	64223,85
592,26	64232,75
592,45	64221,72
592,65	64224,29
592,84	64225,51
593,04	64229,62
593,23	64221,68
593,43	64228,13
593,62	64223,69
593,82	64227,36
594,01	64224,71
594,21	64228,32
594,40	64226,72
594,60	64231,68
594,79	64221,07
594,99	64225,72
595,18	64222,54
595,38	64225,70
595,57	64224,14
595,77	64228,11
595,96	64219,42
596,16	64227,01
596,35	64219,88
596,55	64226,50
596,74	64219,13
596,94	64229,41
597,13	64220,58
597,33	64230,06
597,52	64220,86
597,72	64227,52
597,91	64218,36
598,11	64230,22
598,30	64223,07
598,50	64228,83
598,69	64224,26
598,88	64228,04
599,08	64221,26
599,27	64228,71
599,47	64223,62
599,66	64229,52
599,86	64222,18
600,05	64228,77
600,25	64219,38
600,44	64224,07
600,64	64217,89
600,83	64227,18
601,02	64216,92
601,22	64225,74
601,41	64220,29
601,61	64224,39
601,80	64219,13
602,00	64228,95
602,19	64224,30
602,38	64230,82
602,58	64226,21
602,77	64225,96
602,97	64224,94
603,16	64226,24
603,36	64223,27
603,55	64224,06
603,74	64222,02
603,94	64229,56
604,13	64217,64
604,33	64228,36
604,52	64225,51
604,72	64226,11
604,91	64218,45
605,10	64228,31
605,30	64223,64
605,49	64221,94
605,69	64220,73
605,88	64228,33
606,07	64220,39
606,27	64223,29
606,46	64221,89
606,66	64227,39
606,85	64225,22
607,04	64229,80
607,24	64222,60
607,43	64224,58
607,63	64220,42
607,82	64226,18
608,01	64220,98
608,21	64231,17
608,40	64220,07
608,60	64226,25
608,79	64221,43
608,98	63803,79
609,18	61415,55
609,37	57726,33
609,57	48482,20
609,76	45275,29
609,95	41670,95
610,15	37280,49
610,34	33620,94
610,53	26810,18
610,73	24067,40
610,92	16208,42
611,11	14576,82
611,31	13568,40
611,50	13320,28
611,70	10182,51
611,89	7807,10
612,08	6680,46
612,28	3983,53
612,47	1834,39
612,66	883,07
612,86	876,82
613,05	863,62
613,24	858,57
613,44	882,29
613,63	1016,30
613,82	1387,28
614,02	1946,44
614,21	2596,71
614,41	3527,76
614,60	4645,30
614,79	5513,38
614,99	5882,87
615,18	5887,68
615,37	5305,00
615,57	4451,43
615,76	3202,00
615,95	2256,30
616,15	1649,64
616,34	1332,82
616,53	1133,86
616,73	1007,70
616,92	916,99
617,11	854,40
617,30	806,37
617,50	771,92
617,69	754,97
617,88	737,10
618,08	704,94
618,27	709,90
618,46	691,35
618,66	681,38
618,85	673,85
619,04	664,44
619,24	667,06
619,43	666,81
619,62	663,72
619,82	657,64
620,01	650,15
620,20	648,35
620,39	649,44
620,59	642,63
620,78	634,56
620,97	638,79
621,17	633,90
621,36	637,24
621,55	626,41
621,74	623,31
621,94	613,53
622,13	614,47
622,32	621,11
622,52	610,90
622,71	613,92
622,90	603,54
623,09	606,51
623,29	606,01
623,48	602,94
623,67	602,26
623,86	593,95
624,06	595,99
624,25	583,02
624,44	579,89
624,64	581,61
624,83	578,11
625,02	561,24
625,21	560,94
625,41	560,38
625,60	562,02
625,79	556,22
625,98	547,08
626,18	545,58
626,37	534,26
626,56	531,48
626,75	535,35
626,95	529,95
627,14	525,62
627,33	524,75
627,52	521,27
627,72	509,46
627,91	508,70
628,10	508,60
628,29	510,27
628,49	497,80
628,68	496,67
628,87	497,54
629,06	496,40
629,25	492,65
629,45	484,18
629,64	485,72
629,83	483,36
630,02	479,02
630,22	474,32
630,41	476,76
630,60	469,06
630,79	466,91
630,98	467,63
631,18	463,16
631,37	462,83
631,56	462,46
631,75	458,95
631,94	461,62
632,14	455,20
632,33	458,18
632,52	458,67
632,71	453,21
632,90	460,47
633,10	450,01
633,29	449,40
633,48	451,56
633,67	445,45
633,86	440,46
634,06	440,92
634,25	431,91
634,44	433,60
634,63	430,16
634,82	429,38
635,02	420,50
635,21	424,13
635,40	418,27
635,59	421,21
635,78	421,33
635,97	415,36
636,17	403,69
636,36	410,72
636,55	406,15
636,74	409,03
636,93	398,34
637,12	404,02
637,32	397,51
637,51	399,14
637,70	395,33
637,89	399,07
638,08	391,65
638,27	391,75
638,47	381,74
638,66	386,72
638,85	379,19
639,04	380,56
639,23	372,69
639,42	374,12
639,62	371,01
639,81	372,34
640,00	372,37
640,19	370,32
640,38	373,23
640,57	378,12
640,76	374,38
640,95	370,37
641,15	370,07
641,34	364,59
641,53	355,01
641,72	348,84
641,91	350,97
642,10	350,43
642,29	348,95
642,49	343,42
642,68	334,07
642,87	344,44
643,06	337,91
643,25	338,84
643,44	334,74
643,63	335,98
643,82	332,86
644,01	332,08
644,21	328,89
644,40	324,06
644,59	325,17
644,78	325,10
644,97	317,83
645,16	322,38
645,35	319,47
645,54	319,73
645,73	319,58
645,92	314,63
646,12	320,77
646,31	309,03
646,50	315,35
646,69	316,03
646,88	310,21
647,07	307,15
647,26	308,89
647,45	301,64
647,64	300,99
647,83	302,99
648,02	299,72
648,22	300,40
648,41	297,99
648,60	293,02
648,79	291,91
648,98	291,84
649,17	289,81
649,36	283,14
649,55	284,69
649,74	287,55
649,93	288,68
650,12	286,13
650,31	284,74
650,50	281,89
650,69	282,42
650,88	282,45
651,08	280,92
651,27	280,08
651,46	274,11
651,65	271,93
651,84	262,52
652,03	267,77
652,22	261,57
652,41	260,15
652,60	260,09
652,79	253,95
652,98	250,96
653,17	252,92
653,36	251,80
653,55	246,57
653,74	248,58
653,93	249,03
654,12	246,43
654,31	245,19
654,50	245,55
654,69	243,93
654,88	246,11
655,07	238,06
655,26	240,35
655,45	240,67
655,64	236,81
655,83	241,35
656,02	233,18
656,21	234,92
656,40	234,35
656,59	234,62
656,78	228,50
656,97	229,73
657,17	228,93
657,36	224,15
657,55	222,55
657,74	224,10
657,93	217,80
658,12	222,43
658,31	217,46
658,50	216,04
658,69	213,70
658,87	217,16
659,06	209,59
659,25	215,04
659,44	210,51
659,63	209,15
659,82	209,49
660,01	209,38
660,20	207,19
660,39	201,76
660,58	205,82
660,77	198,46
660,96	200,35
661,15	200,74
661,34	194,92
661,53	197,17
661,72	196,58
661,91	190,38
662,10	193,72
662,29	192,83
662,48	191,90
662,67	187,37
662,86	191,74
663,05	191,28
663,24	190,49
663,43	187,14
663,62	189,37
663,81	181,66
664,00	180,99
664,19	180,72
664,38	179,68
664,57	180,19
664,76	173,63
664,94	177,75
665,13	176,16
665,32	177,30
665,51	176,71
665,70	172,81
665,89	173,61
666,08	175,06
666,27	173,86
666,46	175,76
666,65	171,50
666,84	178,63
667,03	173,13
667,22	173,25
667,41	166,94
667,60	165,72
667,78	162,60
667,97	158,00
668,16	153,32
668,35	150,80
668,54	151,36
668,73	150,28
668,92	152,58
669,11	147,66
669,30	146,71
669,49	143,10
669,68	142,90
669,86	143,16
670,05	141,50
670,24	143,22
670,43	140,33
670,62	137,33
670,81	146,12
671,00	137,95
671,19	139,61
671,38	135,99
671,57	129,38
671,75	131,01
671,94	128,44
672,13	128,05
672,32	130,19
672,51	126,98
672,70	127,75
672,89	130,76
673,08	123,85
673,26	121,57
673,45	124,75
673,64	121,62
673,83	126,39
674,02	134,03
674,21	136,77
674,40	140,12
674,59	136,19
674,77	132,59
674,96	121,50
675,15	116,83
675,34	107,05
675,53	107,96
675,72	105,56
675,91	103,18
676,09	106,80
676,28	100,63
676,47	102,96
676,66	98,46
676,85	98,12
677,04	99,12
677,22	96,04
677,41	96,64
677,60	96,60
677,79	93,13
677,98	92,77
678,17	93,12
678,36	90,89
678,54	92,48
678,73	91,39
678,92	92,26
679,11	89,85
679,30	86,73
679,48	86,64
679,67	86,04
679,86	84,66
680,05	80,75
680,24	84,65
680,43	83,36
680,61	86,10
680,80	86,65
680,99	85,13
681,18	83,82
681,37	77,10
681,55	78,67
681,74	78,42
681,93	75,97
682,12	74,27
682,31	75,52
682,49	74,42
682,68	74,44
682,87	75,03
683,06	73,18
683,25	74,13
683,43	74,09
683,62	73,02
683,81	74,27
684,00	76,80
684,19	78,98
684,37	71,43
684,56	72,72
684,75	72,33
684,94	71,21
685,12	69,43
685,31	69,74
685,50	76,69
685,69	75,55
685,88	79,46
686,06	84,65
686,25	85,88
686,44	83,73
686,63	84,24
686,81	74,24
687,00	72,33
687,19	70,67
687,38	69,56
687,56	68,36
687,75	68,52
687,94	65,81
688,13	66,31
688,31	64,23
688,50	67,49
688,69	62,03
688,88	64,56
689,06	63,15
689,25	65,55
689,44	58,83
689,63	63,26
689,81	63,31
690,00	63,62
690,19	61,16
690,38	59,10
690,56	52,07
690,75	59,00
690,94	52,52
691,13	55,30
691,31	58,59
691,50	58,46
691,69	57,64
691,87	54,77
692,06	62,18
692,25	60,68
692,44	62,24
692,62	66,64
692,81	66,69
693,00	66,74
693,18	66,42
693,37	68,39
693,56	57,44
693,75	64,79
693,93	58,98
694,12	58,05
694,31	59,09
694,49	63,70
694,68	111,13
694,87	245,70
695,05	519,38
695,24	889,06
695,43	1189,69
695,62	1363,66
695,80	1387,34
695,99	1184,60
696,18	887,09
696,36	586,89
696,55	407,48
696,74	293,06
696,92	221,75
697,11	172,18
697,30	139,49
697,48	115,98
697,67	100,40
697,86	85,67
698,04	80,08
698,23	72,28
698,42	67,43
698,60	57,91
698,79	56,15
698,98	53,28
699,16	50,78
699,35	51,32
699,54	50,89
699,72	49,06
699,91	50,56
700,10	45,97
700,28	49,84
700,47	48,52
700,66	42,03
700,84	48,15
701,03	44,17
701,21	47,96
701,40	46,60
701,59	53,55
701,77	59,01
701,96	63,98
702,15	60,58
702,33	62,19
702,52	58,62
702,71	52,95
702,89	48,93
703,08	48,60
703,26	50,61
703,45	45,23
703,64	45,95
703,82	48,74
704,01	47,20
704,20	45,03
704,38	48,07
704,57	50,09
704,75	57,61
704,94	104,61
705,13	226,56
705,31	427,24
705,50	658,17
705,68	822,95
705,87	900,29
706,06	842,19
706,24	700,69
706,43	488,22
706,61	335,19
706,80	242,77
706,99	179,09
707,17	142,69
707,36	118,06
707,54	95,15
707,73	79,68
707,92	73,08
708,10	64,72
708,29	56,96
708,47	54,10
708,66	48,27
708,84	46,87
709,03	41,08
709,22	39,80
709,40	44,04
709,59	40,86
709,77	45,31
709,96	39,99
710,14	41,42
710,33	46,91
710,52	43,00
710,70	44,18
710,89	41,42
711,07	42,78
711,26	41,79
711,44	44,73
711,63	42,71
711,81	41,37
712,00	39,39
712,19	43,49
712,37	41,57
712,56	37,24
712,74	41,89
712,93	48,17
713,11	56,40
713,30	78,17
713,48	105,02
713,67	117,92
713,85	128,01
714,04	125,67
714,22	105,15
714,41	91,91
714,59	73,15
714,78	60,09
714,97	54,74
715,15	51,78
715,34	48,32
715,52	47,01
715,71	41,81
715,89	43,09
716,08	41,78
716,26	40,51
716,45	43,65
716,63	43,59
716,82	43,74
717,00	43,53
717,19	48,17
717,37	41,83
717,56	40,81
717,74	39,75
717,93	40,42
718,11	42,48
718,30	41,29
718,48	45,98
718,67	44,29
718,85	41,75
719,04	39,64
719,22	38,07
719,41	37,04
719,59	41,48
719,78	43,64
719,96	42,86
720,15	38,23
720,33	41,75
720,52	39,55
720,70	43,13
720,88	39,37
721,07	38,44
721,25	36,76
721,44	37,07
721,62	38,66
721,81	41,31
721,99	33,35
722,18	35,72
722,36	40,57
722,55	34,89
722,73	39,03
722,92	38,16
723,10	37,87
723,28	37,90
723,47	39,96
723,65	37,88
723,84	35,61
724,02	39,00
724,21	36,94
724,39	36,64
724,58	35,57
724,76	37,47
724,94	38,84
725,13	37,14
725,31	38,72
725,50	50,05
725,68	85,90
725,87	147,22
726,05	224,45
726,23	288,87
726,42	317,76
726,60	313,64
726,79	264,61
726,97	206,26
727,16	141,69
727,34	108,43
727,52	90,68
727,71	77,87
727,89	63,39
728,08	56,39
728,26	52,45
728,44	51,16
728,63	43,84
728,81	43,67
729,00	43,37
729,18	41,32
729,36	36,08
729,55	38,71
729,73	35,58
729,92	35,72
730,10	39,27
730,28	39,95
730,47	35,96
730,65	35,03
730,84	37,76
731,02	38,47
731,20	34,99
731,39	36,40
731,57	35,38
731,75	36,06
731,94	33,18
732,12	33,19
732,31	38,00
732,49	36,18
732,67	34,01
732,86	29,56
733,04	35,65
733,22	37,30
733,41	32,79
733,59	33,02
733,78	32,99
733,96	39,26
734,14	41,49
734,33	41,88
734,51	39,85
734,69	40,54
734,88	39,96
735,06	41,94
735,24	38,75
735,43	37,60
735,61	39,02
735,79	45,20
735,98	50,25
736,16	55,21
736,34	62,85
736,53	92,36
736,71	195,77
736,89	432,81
737,08	768,28
737,26	1141,51
737,44	1357,49
737,63	1441,72
737,81	1308,53
737,99	1032,69
738,18	702,17
738,36	481,43
738,54	346,95
738,73	258,34
738,91	199,86
739,09	161,32
739,28	127,17
739,46	107,02
739,64	88,35
739,82	72,48
740,01	59,09
740,19	55,33
740,37	45,87
740,56	39,82
740,74	38,01
740,92	36,03
741,11	37,71
741,29	32,20
741,47	33,60
741,65	35,19
741,84	33,12
742,02	40,12
742,20	36,76
742,39	37,82
742,57	37,82
742,75	33,08
742,93	30,50
743,12	37,93
743,30	33,99
743,48	34,31
743,67	36,83
743,85	33,73
744,03	31,46
744,21	34,85
744,40	30,02
744,58	30,79
744,76	34,07
744,94	35,51
745,13	34,84
745,31	33,61
745,49	34,52
745,67	34,92
745,86	36,84
746,04	36,47
746,22	35,52
746,40	37,34
746,59	38,45
746,77	37,22
746,95	36,59
747,13	36,92
747,32	36,56
747,50	40,44
747,68	36,37
747,86	37,45
748,05	37,15
748,23	37,95
748,41	44,49
748,59	79,71
748,77	190,58
748,96	398,90
749,14	686,79
749,32	944,38
749,50	1080,59
749,69	1153,14
749,87	1113,18
750,05	1113,08
750,23	1162,85
750,41	1266,24
750,60	1318,39
750,78	1285,37
750,96	1070,92
751,14	808,58
751,32	543,20
751,51	391,12
751,69	291,37
751,87	224,58
752,05	183,06
752,23	139,63
752,42	107,67
752,60	88,43
752,78	75,30
752,96	66,07
753,14	51,19
753,33	44,73
753,51	42,38
753,69	39,52
753,87	39,39
754,05	33,99
754,23	31,46
754,42	32,45
754,60	32,30
754,78	33,51
754,96	31,30
755,14	33,26
755,32	36,06
755,51	35,32
755,69	33,59
755,87	30,52
756,05	35,79
756,23	34,88
756,41	34,24
756,60	32,54
756,78	32,40
756,96	33,86
757,14	33,48
757,32	32,88
757,50	34,69
757,68	32,86
757,87	30,77
758,05	31,70
758,23	33,92
758,41	31,01
758,59	32,82
758,77	31,72
758,95	34,80
759,14	33,26
759,32	32,54
759,50	34,54
759,68	38,31
759,86	38,30
760,04	39,89
760,22	44,00
760,40	43,37
760,59	43,66
760,77	42,28
760,95	45,74
761,13	43,18
761,31	42,64
761,49	70,50
761,67	169,14
761,85	574,57
762,03	1503,13
762,22	2967,38
762,40	4672,46
762,58	5835,68
762,76	6351,23
762,94	5884,22
763,12	4699,53
763,30	3280,80
763,48	2156,86
763,66	1571,01
763,84	1150,83
764,02	859,89
764,21	626,11
764,39	484,61
764,57	392,17
764,75	371,30
764,93	483,75
765,11	776,15
765,29	1195,24
765,47	1570,63
765,65	1751,67
765,83	1737,02
766,01	1498,39
766,19	1120,14
766,37	745,45
766,56	515,80
766,74	388,70
766,92	291,59
767,10	223,81
767,28	173,22
767,46	137,02
767,64	118,23
767,82	100,19
768,00	96,14
768,18	119,72
768,36	217,22
768,54	395,90
768,72	642,96
768,90	854,39
769,08	950,53
769,26	942,30
769,44	799,20
769,62	598,42
769,80	396,42
769,98	285,34
770,16	210,85
770,34	167,68
770,52	147,86
770,71	222,47
770,89	448,30
771,07	882,69
771,25	1426,99
771,43	1916,79
771,61	2134,38
771,79	2102,98
771,97	1771,06
772,15	1310,91
772,33	852,01
772,51	594,27
772,69	430,56
772,87	328,07
773,05	242,14
773,23	191,61
773,41	152,00
773,59	122,46
773,77	103,88
773,95	90,50
774,13	72,61
774,31	61,44
774,49	52,00
774,67	44,06
774,85	41,78
775,03	38,66
775,21	32,24
775,39	34,49
775,57	32,28
775,75	32,67
775,93	33,74
776,10	29,64
776,28	28,64
776,46	33,13
776,64	24,45
776,82	27,13
777,00	30,17
777,18	27,77
777,36	26,24
777,54	28,98
777,72	29,24
777,90	31,18
778,08	25,39
778,26	29,35
778,44	26,19
778,62	30,18
778,80	31,69
778,98	34,55
779,16	33,44
779,34	37,36
779,52	35,29
779,70	32,59
779,88	35,03
780,05	32,57
780,23	30,44
780,41	31,19
780,59	31,69
780,77	26,22
780,95	31,91
781,13	27,91
781,31	30,28
781,49	27,60
781,67	30,21
781,85	25,66
782,03	25,33
782,21	24,40
782,39	27,14
782,56	27,38
782,74	27,07
782,92	26,83
783,10	30,21
783,28	26,33
783,46	27,21
783,64	29,80
783,82	29,15
784,00	30,87
784,18	31,39
784,35	27,68
784,53	26,57
784,71	31,53
784,89	33,07
785,07	34,83
785,25	34,06
785,43	32,98
785,61	33,25
785,79	28,83
785,96	28,98
786,14	31,23
786,32	31,09
786,50	33,65
786,68	30,97
786,86	29,19
787,04	28,88
787,22	29,19
787,39	31,56
787,57	27,65
787,75	28,63
787,93	26,22
788,11	31,99
788,29	31,19
788,47	27,62
788,65	31,43
788,82	28,20
789,00	27,38
789,18	28,39
789,36	29,46
789,54	28,29
789,72	27,96
789,89	29,08
790,07	29,06
790,25	28,49
790,43	32,04
790,61	27,50
790,79	28,37
790,96	30,35
791,14	31,41
791,32	29,38
791,50	29,35
791,68	32,87
791,86	29,11
792,03	27,91
792,21	31,00
792,39	28,31
792,57	30,43
792,75	31,35
792,93	41,81
793,10	69,33
793,28	174,63
793,46	389,60
793,64	699,22
793,82	995,06
793,99	1165,86
794,17	1187,83
794,35	1077,79
794,53	826,10
794,71	553,67
794,88	361,25
795,06	278,68
795,24	214,83
795,42	171,04
795,60	147,28
795,77	120,04
795,95	103,53
796,13	88,36
796,31	78,14
796,49	70,44
796,66	61,21
796,84	54,11
797,02	50,89
797,20	48,49
797,37	37,91
797,55	41,78
797,73	36,42
797,91	38,33
798,08	38,89
798,26	35,12
798,44	39,42
798,62	39,44
798,80	44,38
798,97	72,12
799,15	138,53
799,33	268,72
799,51	438,88
799,68	582,77
799,86	696,82
800,04	827,99
800,22	984,39
800,39	1156,12
800,57	1240,95
800,75	1266,56
800,93	1191,26
801,10	1012,95
801,28	724,20
801,46	477,00
801,63	345,95
801,81	277,86
801,99	220,51
802,17	190,59
802,34	154,04
802,52	135,80
802,70	109,49
802,88	94,39
803,05	81,44
803,23	76,76
803,41	69,58
803,58	58,56
803,76	50,35
803,94	53,21
804,12	48,93
804,29	41,37
804,47	42,18
804,65	43,18
804,82	43,16
805,00	37,87
805,18	37,83
805,35	41,47
805,53	43,60
805,71	37,22
805,89	43,23
806,06	43,12
806,24	43,15
806,42	41,59
806,59	43,29
806,77	46,93
806,95	43,41
807,12	45,99
807,30	45,78
807,48	50,71
807,65	44,09
807,83	53,93
808,01	50,99
808,18	56,88
808,36	58,91
808,54	69,54
808,71	115,79
808,89	258,50
809,07	527,57
809,24	885,46
809,42	1225,95
809,60	1407,66
809,77	1480,53
809,95	1601,50
810,13	1959,53
810,30	2738,35
810,48	3781,91
810,66	4701,43
810,83	5004,87
811,01	4845,63
811,18	3985,12
811,36	2944,19
811,54	1909,74
811,71	1394,77
811,89	1095,40
812,07	885,02
812,24	736,30
812,42	609,05
812,59	503,56
812,77	426,50
812,95	362,41
813,12	309,24
813,30	266,77
813,48	228,35
813,65	201,44
813,83	173,78
814,00	144,49
814,18	135,34
814,36	124,18
814,53	116,45
814,71	118,66
814,88	127,76
815,06	139,73
815,24	152,69
815,41	167,01
815,59	181,83
815,76	196,04
815,94	222,92
816,12	249,56
816,29	310,29
816,47	507,75
816,64	1500,07
816,82	4566,00
817,00	10681,55
817,17	19280,53
817,35	28461,94
817,52	33774,40
817,70	36341,55
817,87	36456,64
818,05	36980,61
818,23	40106,86
818,40	48123,91
818,58	54289,67
818,75	57131,44
818,93	56134,28
819,10	51566,79
819,28	41118,49
819,46	28999,28
819,63	19312,61
819,81	15272,49
819,98	12180,59
820,16	9911,04
820,33	8127,46
820,51	6655,48
820,68	5320,36
820,86	4328,76
821,03	3457,08
821,21	2754,62
821,39	2222,18
821,56	1804,91
821,74	1413,91
821,91	1097,77
822,09	819,80
822,26	591,71
822,44	420,00
822,61	311,03
822,79	237,68
822,96	188,58
823,14	156,68
823,31	128,67
823,49	117,70
823,66	103,98
823,84	99,18
824,01	93,17
824,19	88,50
824,36	80,24
824,54	83,89
824,71	99,83
824,89	146,88
825,06	233,94
825,24	391,63
825,41	555,98
825,59	684,61
825,76	748,62
825,94	727,31
826,11	639,63
826,29	488,80
826,46	350,12
826,64	270,40
826,81	222,99
826,99	189,63
827,16	166,93
827,34	146,78
827,51	127,91
827,69	112,61
827,86	99,42
828,04	91,64
828,21	82,01
828,39	75,61
828,56	68,31
828,74	56,41
828,91	58,92
829,09	49,69
829,26	52,19
829,43	45,83
829,61	43,54
829,78	43,79
829,96	40,05
830,13	42,54
830,31	36,68
830,48	39,61
830,66	37,73
830,83	36,13
831,01	37,95
831,18	39,22
831,35	36,49
831,53	35,85
831,70	35,66
831,88	31,68
832,05	33,25
832,23	32,43
832,40	33,31
832,57	37,09
832,75	33,88
832,92	34,71
833,10	35,68
833,27	33,90
833,45	34,59
833,62	32,62
833,79	33,67
833,97	32,79
834,14	36,50
834,32	29,84
834,49	30,76
834,66	28,06
834,84	32,39
835,01	32,74
835,19	30,56
835,36	29,26
835,53	34,51
835,71	30,60
835,88	28,04
836,06	29,48
836,23	31,93
836,40	29,33
836,58	33,37
836,75	28,20
836,93	31,45
837,10	29,86
837,27	28,07
837,45	26,85
837,62	28,51
837,79	28,23
837,97	32,92
838,14	30,05
838,32	29,65
838,49	40,23
838,66	34,44
838,84	39,03
839,01	57,45
839,18	91,30
839,36	174,48
839,53	309,44
839,70	491,86
839,88	677,59
840,05	806,65
840,23	856,65
840,40	839,02
840,57	730,52
840,75	593,06
840,92	516,61
841,09	564,73
841,27	720,60
841,44	919,26
841,61	1108,32
841,79	1214,48
841,96	1203,43
842,13	1089,82
842,31	878,12
842,48	648,74
842,65	492,61
842,83	392,87
843,00	324,01
843,17	283,55
843,35	234,93
843,52	199,39
843,69	173,52
843,86	153,82
844,04	123,97
844,21	104,06
844,38	91,26
844,56	78,74
844,73	69,81
844,90	56,26
845,08	51,44
845,25	48,82
845,42	41,77
845,60	35,09
845,77	29,02
845,94	25,06
846,11	24,47
846,29	24,50
846,46	23,78
846,63	21,08
846,81	22,19
846,98	20,17
847,15	22,93
847,32	19,89
847,50	21,88
847,67	24,17
847,84	25,78
848,01	18,45
848,19	21,14
848,36	21,03
848,53	24,56
848,71	20,57
848,88	24,92
849,05	23,57
849,22	17,34
849,40	21,20
849,57	25,08
849,74	20,88
849,91	26,14
850,09	23,67
850,26	24,90
850,43	34,31
850,60	50,93
850,78	78,01
850,95	119,95
851,12	176,91
851,29	232,42
851,47	269,75
851,64	284,67
851,81	265,18
851,98	231,88
852,15	183,00
852,33	142,33
852,50	116,17
852,67	95,46
852,84	85,06
853,02	74,97
853,19	67,16
853,36	59,65
853,53	52,35
853,70	48,96
853,88	41,36
854,05	40,64
854,22	35,89
854,39	33,93
854,56	28,22
854,74	24,96
854,91	22,73
855,08	23,88
855,25	18,21
855,42	18,56
855,60	18,60
855,77	21,49
855,94	14,21
856,11	19,36
856,28	11,96
856,46	18,37
856,63	15,83
856,80	20,08
856,97	20,76
857,14	19,80
857,31	12,34
857,49	15,96
857,66	9,32
857,83	15,32
858,00	15,81
858,17	16,33
858,34	17,57
858,52	13,74
858,69	13,57
858,86	17,38
859,03	16,81
859,20	15,22
859,37	12,10
859,55	11,47
859,72	11,95
859,89	13,57
860,06	16,72
860,23	16,75
860,40	14,42
860,57	14,29
860,75	17,52
860,92	16,20
861,09	15,49
861,26	14,72
861,43	15,36
861,60	15,10
861,77	11,66
861,95	12,24
862,12	11,92
862,29	13,41
862,46	10,85
862,63	13,39
862,80	10,58
862,97	11,27
863,14	9,55
863,31	8,01
863,49	6,92
863,66	12,49
863,83	11,45
864,00	10,04
864,17	11,22
864,34	10,43
864,51	10,94
864,68	13,76
864,85	14,54
865,02	15,41
865,20	13,87
865,37	13,00
865,54	20,37
865,71	27,99
865,88	36,75
866,05	37,87
866,22	48,33
866,39	47,81
866,56	49,24
866,73	41,96
866,90	32,82
867,07	30,72
867,25	29,75
867,42	25,57
867,59	24,14
867,76	21,26
867,93	17,95
868,10	17,24
868,27	16,36
868,44	18,58
868,61	19,84
868,78	17,59
868,95	16,58
869,12	15,97
869,29	13,39
869,46	13,05
869,63	10,92
869,80	10,25
869,97	9,60
870,14	11,48
870,32	10,41
870,49	14,19
870,66	11,39
870,83	8,35
871,00	9,63
871,17	8,30
871,34	12,96
871,51	8,89
871,68	11,05
871,85	6,83
872,02	10,20
872,19	12,32
872,36	9,06
872,53	12,97
872,70	10,91
872,87	8,72
873,04	14,57
873,21	13,52
873,38	12,68
873,55	12,92
873,72	15,10
873,89	11,32
874,06	13,82
874,23	13,87
874,40	9,68
874,57	9,36
874,74	12,34
874,91	13,33
875,08	15,13
875,25	9,78
875,42	10,41
875,59	12,92
875,76	10,00
875,93	6,75
876,10	15,01
876,27	9,59
876,44	13,29
876,61	14,91
876,78	7,49
876,95	8,38
877,12	10,60
877,29	11,31
877,46	11,71
877,62	7,65
877,79	9,27
877,96	10,92
878,13	10,73
878,30	9,33
878,47	7,90
878,64	10,92
878,81	9,08
878,98	9,46
879,15	10,87
879,32	7,63
879,49	8,00
879,66	6,75
879,83	9,12
880,00	10,11
880,17	10,07
880,34	7,94
880,51	13,09
880,67	8,71
880,84	8,41
881,01	8,89
881,18	8,33
881,35	9,45
881,52	9,68
881,69	11,64
881,86	11,09
882,03	11,24
882,20	7,08
882,37	7,55
882,54	11,35
882,70	12,31
882,87	7,71
883,04	6,34
883,21	6,87
883,38	9,01
883,55	7,36
883,72	6,65
883,89	9,36
884,06	9,21
884,23	7,29
884,39	10,68
884,56	11,00
884,73	9,88
884,90	8,69
885,07	11,01
885,24	9,09
885,41	8,84
885,58	7,04
885,74	8,98
885,91	7,90
886,08	7,37
886,25	5,99
886,42	7,89
886,59	5,73
886,76	10,81
886,93	8,21
887,09	8,35
887,26	6,83
887,43	10,49
887,60	10,51
887,77	8,63
887,94	1,66
888,10	8,18
888,27	3,00
888,44	4,69
888,61	7,26
888,78	7,30
888,95	10,55
889,12	6,26
889,28	4,40
889,45	8,61
889,62	10,15
889,79	8,25
889,96	5,80
890,13	8,11
890,29	9,25
890,46	4,82
890,63	6,59
890,80	6,74
890,97	7,52
891,13	8,59
891,30	9,28
891,47	8,21
891,64	12,04
891,81	4,75
891,98	10,11
892,14	3,33
892,31	7,89
892,48	5,06
892,65	4,34
892,82	6,01
892,98	7,00
893,15	3,99
893,32	7,76
>>>>>End Processed Spectral Data<<<<<
